D:\MassHunter\GCMS\1\data\Victoria Marland\22FEB\220223034.D 24 Feb 22  01:25 am
Start of data points
3.09155,763
3.09632,925
3.10107,587
3.10583,670
3.1106,791
3.11535,613
3.12012,562
3.12488,765
3.12965,663
3.1344,758
3.13917,587
3.14393,908
3.14868,1017
3.15345,576
3.15822,864
3.16298,1523
3.16773,703
3.1725,685
3.17727,1094
3.18203,626
3.18678,572
3.19155,668
3.19632,1469
3.20107,1421
3.20583,1368
3.2106,962
3.21537,1041
3.22012,580
3.22488,989
3.22965,1052
3.2344,711
3.23917,647
3.24393,815
3.2487,721
3.25345,969
3.25822,1016
3.26298,843
3.26773,555
3.2725,686
3.27727,1051
3.28203,687
3.28678,860
3.29155,866
3.29632,893
3.30107,659
3.30583,745
3.3106,922
3.31537,671
3.32012,871
3.32488,903
3.32965,512
3.3344,1007
3.33917,971
3.34393,882
3.3487,1085
3.35345,698
3.35822,727
3.36298,640
3.36775,758
3.3725,619
3.37727,493
3.38203,1108
3.38678,691
3.39155,821
3.39632,1208
3.40108,916
3.40583,679
3.4106,814
3.41537,729
3.42012,977
3.42488,823
3.42965,856
3.43442,864
3.43917,780
3.44393,1044
3.4487,1056
3.45345,997
3.45822,1036
3.46298,628
3.46775,762
3.4725,667
3.47727,974
3.48203,687
3.48678,1027
3.49155,502
3.49632,982
3.50108,603
3.50583,940
3.5106,776
3.51537,740
3.52013,469
3.52488,1497
3.52965,751
3.53442,914
3.53917,937
3.54393,675
3.5487,1035
3.55347,746
3.55822,922
3.56298,831
3.56775,1020
3.5725,606
3.57727,793
3.58203,761
3.5868,941
3.59155,656
3.59632,692
3.60108,1094
3.60583,902
3.6106,531
3.61537,803
3.62013,760
3.62488,1060
3.62965,576
3.63442,810
3.63917,619
3.64393,866
3.6487,1097
3.65347,1483
3.65822,909
3.66298,755
3.66775,561
3.6725,701
3.67727,567
3.68203,790
3.6868,724
3.69155,817
3.69632,1039
3.70108,701
3.70585,803
3.7106,572
3.71537,784
3.72013,818
3.72488,885
3.72965,1107
3.73442,665
3.73918,719
3.74393,1020
3.7487,807
3.75347,828
3.75822,693
3.76298,869
3.76775,768
3.77252,848
3.77727,829
3.78203,852
3.7868,959
3.79155,655
3.79632,858
3.80108,967
3.80585,757
3.8106,1006
3.81537,854
3.82013,658
3.82488,1023
3.82965,891
3.83442,759
3.83918,771
3.84393,777
3.8487,692
3.85347,589
3.85822,845
3.86298,788
3.86775,940
3.87252,854
3.87727,907
3.88203,1023
3.8868,857
3.89157,1144
3.89632,1005
3.90108,728
3.90585,758
3.9106,629
3.91537,1009
3.92013,690
3.9249,702
3.92965,810
3.93442,653
3.93918,610
3.94393,811
3.9487,965
3.95347,1025
3.95823,651
3.96298,557
3.96775,810
3.97252,1820
3.97727,3633
3.98203,4042
3.9868,3079
3.99157,1852
3.99632,2050
4.00108,1536
4.00585,1268
4.0106,1592
4.01537,920
4.02013,945
4.0249,1289
4.02965,918
4.03442,766
4.03918,1076
4.04395,981
4.0487,1127
4.05347,974
4.05823,961
4.06298,891
4.06775,854
4.07252,960
4.07728,1148
4.08203,1025
4.0868,982
4.09157,531
4.09632,599
4.10108,1065
4.10585,928
4.11062,872
4.11537,869
4.12013,997
4.1249,810
4.12965,971
4.13442,1048
4.13918,1079
4.14395,966
4.1487,701
4.15347,756
4.15823,835
4.16298,810
4.16775,1025
4.17252,1167
4.17728,1012
4.18203,887
4.1868,1137
4.19157,1206
4.19632,1913
4.20108,973
4.20585,823
4.21062,779
4.21537,847
4.22013,753
4.2249,724
4.22967,894
4.23442,834
4.23918,635
4.24395,754
4.2487,641
4.25347,791
4.25823,634
4.263,816
4.26775,1203
4.27252,1000
4.27728,705
4.28203,831
4.2868,571
4.29157,692
4.29633,833
4.30108,1070
4.30585,854
4.31062,1081
4.31537,1253
4.32013,865
4.3249,737
4.32967,762
4.33442,957
4.33918,755
4.34395,825
4.3487,947
4.35347,1286
4.35823,1088
4.363,1135
4.36775,1186
4.37252,1007
4.37728,798
4.38205,1101
4.3868,896
4.39157,977
4.39633,1048
4.40108,1049
4.40585,677
4.41062,837
4.41538,1019
4.42013,846
4.4249,965
4.42967,1171
4.43442,1071
4.43918,914
4.44395,1218
4.44872,863
4.45347,836
4.45823,1066
4.463,1068
4.46775,900
4.47252,1075
4.47728,742
4.48205,700
4.4868,919
4.49157,1082
4.49633,1192
4.50108,1101
4.50585,781
4.51062,735
4.51538,909
4.52013,1166
4.5249,980
4.52967,1069
4.53442,930
4.53918,706
4.54395,838
4.54872,911
4.55347,930
4.55823,937
4.563,965
4.56777,992
4.57252,1037
4.57728,1220
4.58205,973
4.5868,862
4.59157,812
4.59633,1120
4.6011,801
4.60585,966
4.61062,991
4.61538,868
4.62013,685
4.6249,1027
4.62967,1028
4.63443,765
4.63918,842
4.64395,1122
4.64872,1012
4.65347,876
4.65823,891
4.663,1192
4.66777,956
4.67252,984
4.67728,841
4.68205,951
4.6868,724
4.69157,1087
4.69633,1092
4.7011,1272
4.70585,1057
4.71062,853
4.71538,1197
4.72015,952
4.7249,968
4.72967,1190
4.73443,1034
4.73918,914
4.74395,893
4.74872,913
4.75348,1050
4.75823,1157
4.763,1304
4.76777,814
4.77252,1247
4.77728,1048
4.78205,1097
4.78682,1146
4.79157,1062
4.79633,1045
4.8011,1808
4.80585,857
4.81062,1132
4.81538,1044
4.82015,910
4.8249,992
4.82967,1118
4.83443,1018
4.83918,1056
4.84395,1072
4.84872,1139
4.85348,849
4.85823,972
4.863,901
4.86777,989
4.87252,930
4.87728,1026
4.88205,1055
4.88682,1220
4.89157,1034
4.89633,1046
4.9011,893
4.90587,1225
4.91062,862
4.91538,1076
4.92015,844
4.9249,966
4.92967,1109
4.93443,1013
4.9392,1283
4.94395,1005
4.94872,832
4.95348,1273
4.95823,1100
4.963,969
4.96777,1056
4.97253,1309
4.97728,900
4.98205,1298
4.98682,999
4.99157,1279
4.99633,1181
5.0011,1351
5.00587,1418
5.01062,1189
5.01538,1160
5.02015,832
5.0249,1058
5.02967,1099
5.03443,1098
5.0392,1351
5.04395,691
5.04872,1224
5.05348,943
5.05823,1320
5.063,1217
5.06777,886
5.07253,1068
5.07728,1214
5.08205,1092
5.08682,1265
5.09158,1230
5.09633,1302
5.1011,1191
5.10587,1194
5.11062,1122
5.11538,1112
5.12015,1115
5.12492,1609
5.12967,1243
5.13443,1155
5.1392,1814
5.14395,1017
5.14872,859
5.15348,994
5.15825,1145
5.163,1530
5.16777,5516
5.17253,7001
5.17728,3334
5.18205,1529
5.18682,1091
5.19158,1350
5.19633,1179
5.2011,1068
5.20587,1243
5.21062,858
5.21538,783
5.22015,1128
5.22492,1167
5.22967,1159
5.23443,1254
5.2392,883
5.24397,1118
5.24872,1395
5.25348,1229
5.25825,1102
5.263,833
5.26777,1126
5.27253,1056
5.2773,1168
5.28205,1455
5.28682,1351
5.29158,1356
5.29633,949
5.3011,1182
5.30587,1264
5.31063,1143
5.31538,1357
5.32015,1285
5.32492,1055
5.32967,1228
5.33443,1359
5.3392,1236
5.34397,1067
5.34872,993
5.35348,1103
5.35825,1386
5.363,1340
5.36777,1424
5.37253,1250
5.3773,1328
5.38205,1449
5.38682,1370
5.39158,1616
5.39633,1284
5.4011,1296
5.40587,941
5.41063,1317
5.41538,1186
5.42015,1288
5.42492,1193
5.42968,1532
5.43443,1420
5.4392,1258
5.44397,1148
5.44872,1287
5.45348,1063
5.45825,1225
5.46302,907
5.46777,1078
5.47253,1376
5.4773,1203
5.48205,1354
5.48682,1185
5.49158,1640
5.49635,1357
5.5011,1272
5.50587,1382
5.51063,1392
5.51538,1303
5.52015,1418
5.52492,1173
5.52968,1040
5.53443,1207
5.5392,1363
5.54397,2309
5.54872,1312
5.55348,1185
5.55825,1172
5.56302,1163
5.56777,929
5.57253,1421
5.5773,1155
5.58207,1485
5.58682,1399
5.59158,1018
5.59635,1359
5.6011,1423
5.60587,1405
5.61063,1319
5.6154,1202
5.62015,1553
5.62492,1446
5.62968,1629
5.63443,1405
5.6392,1467
5.64397,1301
5.64873,1355
5.65348,1574
5.65825,1687
5.66302,1284
5.66777,1253
5.67253,1257
5.6773,1435
5.68207,1439
5.68682,1590
5.69158,1266
5.69635,1436
5.7011,1652
5.70587,1291
5.71063,1456
5.7154,1485
5.72015,1235
5.72492,1506
5.72968,1522
5.73443,1593
5.7392,1541
5.74397,1342
5.74873,1498
5.75348,1518
5.75825,1247
5.76302,1522
5.76778,1708
5.77253,1557
5.7773,1611
5.78207,1273
5.78682,1249
5.79158,1404
5.79635,1393
5.80112,1606
5.80587,2286
5.81063,4626
5.8154,4942
5.82015,2204
5.82492,1298
5.82968,1541
5.83445,1455
5.8392,1545
5.84397,1555
5.84873,1364
5.85348,1508
5.85825,1769
5.86302,1352
5.86778,1264
5.87253,1615
5.8773,1533
5.88207,1956
5.88682,1488
5.89158,1537
5.89635,1454
5.90112,1629
5.90587,1697
5.91063,1664
5.9154,1545
5.92017,1519
5.92492,1436
5.92968,1245
5.93445,1778
5.9392,1573
5.94397,1501
5.94873,1604
5.9535,1510
5.95825,2238
5.96302,2035
5.96778,2140
5.97253,1743
5.9773,1633
5.98207,1886
5.98683,1566
5.99158,1518
5.99635,1948
6.00112,1663
6.00587,1435
6.01063,1267
6.0154,1380
6.02017,1575
6.02492,1518
6.02968,1842
6.03445,1685
6.0392,1738
6.04397,1694
6.04873,1740
6.0535,1547
6.05825,1634
6.06302,1570
6.06778,1454
6.07253,1542
6.0773,1956
6.08207,1701
6.08683,1647
6.09158,1845
6.09635,1752
6.10112,1675
6.10588,1456
6.11063,1752
6.1154,1856
6.12017,1645
6.12492,1660
6.12968,1371
6.13445,1936
6.13922,1456
6.14397,1338
6.14873,1706
6.1535,1556
6.15825,1769
6.16302,1929
6.16778,2209
6.17255,1965
6.1773,2134
6.18207,1841
6.18683,1480
6.19158,1835
6.19635,1399
6.20112,1731
6.20588,1838
6.21063,1621
6.2154,1470
6.22017,2066
6.22492,2052
6.22968,2097
6.23445,1991
6.23922,1449
6.24397,1912
6.24873,1988
6.2535,2169
6.25827,1813
6.26302,1856
6.26778,1895
6.27255,1728
6.2773,1751
6.28207,1703
6.28683,2133
6.2916,1921
6.29635,2196
6.30112,1943
6.30588,1919
6.31063,2079
6.3154,2097
6.32017,2109
6.32493,2415
6.32968,2612
6.33445,2079
6.33922,2327
6.34397,2506
6.34873,2051
6.3535,2057
6.35827,2030
6.36302,1826
6.36778,1954
6.37255,1733
6.3773,2050
6.38207,1777
6.38683,2161
6.3916,2700
6.39635,2312
6.40112,2365
6.40588,2457
6.41063,2289
6.4154,2272
6.42017,2235
6.42493,1932
6.42968,1865
6.43445,2192
6.43922,2465
6.44398,2373
6.44873,2260
6.4535,2186
6.45827,2327
6.46302,2279
6.46778,2370
6.47255,2604
6.47732,2227
6.48207,2376
6.48683,3176
6.4916,37414
6.49635,361119
6.50112,2376062
6.50588,7358188
6.51065,6365545
6.5154,2105989
6.52017,689276
6.52493,354183
6.52968,223739
6.53445,159955
6.53922,122347
6.54398,98601
6.54873,79417
6.5535,66815
6.55827,56610
6.56302,47820
6.56778,41364
6.57255,37778
6.57732,34335
6.58207,29683
6.58683,27622
6.5916,24588
6.59635,22510
6.60112,22572
6.60588,20050
6.61065,18177
6.6154,15819
6.62017,15391
6.62493,16752
6.6297,13204
6.63445,13418
6.63922,12016
6.64398,12216
6.64873,12645
6.6535,11165
6.65827,10718
6.66303,10847
6.66778,9519
6.67255,9532
6.67732,10331
6.68207,9067
6.68683,8399
6.6916,9742
6.69637,8665
6.70112,7452
6.70588,7712
6.71065,7453
6.7154,6295
6.72017,7291
6.72493,6080
6.7297,8083
6.73445,7012
6.73922,7069
6.74398,6492
6.74873,6565
6.7535,5585
6.75827,7089
6.76303,6346
6.76778,6168
6.77255,5092
6.77732,6301
6.78208,5521
6.78683,6133
6.7916,6465
6.79637,5925
6.80112,5875
6.80588,5617
6.81065,5936
6.81542,5090
6.82017,6091
6.82493,6055
6.8297,6475
6.83445,5636
6.83922,6002
6.84398,4851
6.84875,4912
6.8535,6077
6.85827,5948
6.86303,5326
6.86778,5948
6.87255,6361
6.87732,5199
6.88208,4960
6.88683,5456
6.8916,5163
6.89637,5014
6.90112,5005
6.90588,4985
6.91065,5148
6.91542,5686
6.92017,5332
6.92493,5580
6.9297,5071
6.93445,7224
6.93922,6422
6.94398,6805
6.94875,6848
6.9535,5315
6.95827,5163
6.96303,4964
6.9678,5086
6.97255,5083
6.97732,5361
6.98208,4809
6.98683,4108
6.9916,5387
6.99637,5137
7.00113,5530
7.00588,5358
7.01065,5133
7.01542,6069
7.02017,5139
7.02493,5397
7.0297,4871
7.03447,5015
7.03922,5098
7.04398,5342
7.04875,4730
7.0535,5443
7.05827,4921
7.06303,4963
7.0678,4919
7.07255,5702
7.07732,4949
7.08208,5428
7.08683,4971
7.0916,5480
7.09637,5219
7.10113,4628
7.10588,4330
7.11065,4664
7.11542,5362
7.12018,5129
7.12493,4612
7.1297,5554
7.13447,5211
7.13922,5014
7.14398,5968
7.14875,4538
7.15352,5658
7.15827,5146
7.16303,4776
7.1678,5136
7.17255,5632
7.17732,4800
7.18208,5062
7.18685,4727
7.1916,5323
7.19637,4518
7.20113,4894
7.20588,5423
7.21065,4465
7.21542,5674
7.22018,5008
7.22493,5499
7.2297,5112
7.23447,5286
7.23922,4902
7.24398,5906
7.24875,4957
7.25352,4757
7.25827,5584
7.26303,4508
7.2678,5318
7.27255,5254
7.27732,4603
7.28208,5221
7.28685,5386
7.2916,5476
7.29637,5796
7.30113,5191
7.3059,4202
7.31065,5691
7.31542,5789
7.32018,5507
7.32493,4861
7.3297,5152
7.33447,5533
7.33923,5050
7.34398,5883
7.34875,5419
7.35352,4897
7.35827,4936
7.36303,5482
7.3678,4715
7.37257,5314
7.37732,5164
7.38208,5357
7.38685,7119
7.3916,17970
7.39637,64266
7.40113,180487
7.4059,484992
7.41065,1150263
7.41542,2049989
7.42018,2327072
7.42493,1401080
7.4297,648855
7.43447,361729
7.43923,249899
7.44398,186646
7.44875,146261
7.45352,121049
7.45828,103821
7.46303,87520
7.4678,77474
7.47257,68370
7.47732,57080
7.48208,53724
7.48685,47271
7.49162,42858
7.49637,39357
7.50113,34529
7.5059,34134
7.51065,29794
7.51542,28962
7.52018,26841
7.52495,24959
7.5297,23889
7.53447,20877
7.53923,19035
7.54398,18202
7.54875,18148
7.55352,17263
7.55828,17198
7.56303,15724
7.5678,14527
7.57257,15144
7.57732,14058
7.58208,12832
7.58685,12800
7.59162,14023
7.59637,11812
7.60113,13264
7.6059,10833
7.61065,12168
7.61542,11163
7.62018,10938
7.62495,12400
7.6297,10105
7.63447,10199
7.63923,10210
7.644,9930
7.64875,10322
7.65352,10051
7.65828,9312
7.66303,8097
7.6678,8232
7.67257,9209
7.67733,9022
7.68208,8759
7.68685,8632
7.69162,8558
7.69637,8258
7.70113,7914
7.7059,8253
7.71067,8742
7.71542,8048
7.72018,7736
7.72495,7526
7.7297,7887
7.73447,8555
7.73923,7339
7.744,8792
7.74875,7150
7.75352,7585
7.75828,7740
7.76303,6138
7.7678,8308
7.77257,7608
7.77733,7544
7.78208,8569
7.78685,12349
7.79162,17035
7.79637,15775
7.80113,14787
7.8059,12317
7.81067,8569
7.81542,8249
7.82018,7284
7.82495,6779
7.82972,6905
7.83447,7158
7.83923,7195
7.844,6598
7.84875,6224
7.85352,6511
7.85828,6812
7.86305,6057
7.8678,6752
7.87257,6545
7.87733,7665
7.88208,10721
7.88685,11843
7.89162,11108
7.89638,10723
7.90113,9036
7.9059,7847
7.91067,7221
7.91542,6547
7.92018,7147
7.92495,5480
7.92972,6520
7.93447,6163
7.93923,6279
7.944,6514
7.94875,6538
7.95352,6583
7.95828,6399
7.96305,6770
7.9678,7324
7.97257,5753
7.97733,6538
7.9821,6232
7.98685,5920
7.99162,6410
7.99638,6188
8.00113,6071
8.0059,6110
8.01067,5547
8.01543,6484
8.02018,6105
8.02495,6658
8.02972,6604
8.03447,6151
8.03923,5683
8.044,6723
8.04877,6944
8.05352,5630
8.05828,5707
8.06305,6790
8.0678,5519
8.07257,6244
8.07733,7025
8.0821,5667
8.08685,5159
8.09162,6526
8.09638,6230
8.10113,6222
8.1059,5848
8.11067,5545
8.11543,5918
8.12018,6020
8.12495,6191
8.12972,6168
8.13447,5758
8.13923,6578
8.144,6689
8.14877,5819
8.15352,6294
8.15828,5614
8.16305,5853
8.16782,6231
8.17257,5752
8.17733,5037
8.1821,5567
8.18685,6888
8.19162,5590
8.19638,5833
8.20115,6297
8.2059,6030
8.21067,6310
8.21543,5981
8.22018,5675
8.22495,6257
8.22972,6797
8.23448,6416
8.23923,6106
8.244,5434
8.24877,5556
8.25352,6080
8.25828,6463
8.26305,6422
8.26782,6419
8.27257,5885
8.27733,6313
8.2821,6348
8.28685,6231
8.29162,5644
8.29638,6145
8.30115,6258
8.3059,5516
8.31067,6090
8.31543,6217
8.3202,6350
8.32495,6161
8.32972,6658
8.33448,6304
8.33923,6137
8.344,6230
8.34877,5817
8.35353,5606
8.35828,6115
8.36305,6300
8.36782,5707
8.37257,5635
8.37733,5720
8.3821,5726
8.38687,6003
8.39162,5536
8.39638,6478
8.40115,6259
8.4059,6154
8.41067,5197
8.41543,5871
8.4202,5667
8.42495,6581
8.42972,6001
8.43448,5805
8.43923,6961
8.444,6114
8.44877,5904
8.45353,6100
8.45828,6018
8.46305,6220
8.46782,5920
8.47257,5656
8.47733,5783
8.4821,5931
8.48687,6070
8.49162,6001
8.49638,5457
8.50115,6750
8.50592,6110
8.51067,5523
8.51543,5305
8.5202,6271
8.52495,5316
8.52972,4881
8.53448,6817
8.53925,5576
8.544,5712
8.54877,6050
8.55353,5799
8.55828,5065
8.56305,6004
8.56782,6624
8.57258,5983
8.57733,5407
8.5821,6016
8.58687,5688
8.59162,6970
8.59638,5599
8.60115,5838
8.60592,5701
8.61067,5896
8.61543,5677
8.6202,6069
8.62495,6773
8.62972,5919
8.63448,6169
8.63925,5816
8.644,5657
8.64877,6207
8.65353,5973
8.6583,6434
8.66305,5857
8.66782,5493
8.67258,5428
8.67733,5030
8.6821,5912
8.68687,6173
8.69163,6079
8.69638,6616
8.70115,4961
8.70592,5125
8.71067,5322
8.71543,6262
8.7202,6066
8.72497,5859
8.72972,4904
8.73448,5869
8.73925,5494
8.744,6479
8.74877,6036
8.75353,5320
8.7583,5564
8.76305,5510
8.76782,6100
8.77258,5864
8.77733,6065
8.7821,5605
8.78687,5349
8.79163,6193
8.79638,5199
8.80115,5547
8.80592,5947
8.81067,5693
8.81543,6388
8.8202,5489
8.82497,5770
8.82972,6042
8.83448,5937
8.83925,6226
8.84402,5729
8.84877,5196
8.85353,5895
8.8583,6198
8.86305,5481
8.86782,5946
8.87258,5337
8.87735,5142
8.8821,5642
8.88687,6212
8.89163,5621
8.89638,5516
8.90115,5871
8.90592,5246
8.91068,5998
8.91543,5026
8.9202,5448
8.92497,5849
8.92972,6595
8.93448,5571
8.93925,5930
8.94402,5438
8.94877,5627
8.95353,5646
8.9583,6323
8.96305,5233
8.96782,5769
8.97258,5427
8.97735,5109
8.9821,5783
8.98687,5622
8.99163,6185
8.99638,5871
9.00115,5916
9.00592,5332
9.01068,5239
9.01543,5257
9.0202,5513
9.02497,5391
9.02973,5674
9.03448,6137
9.03925,6366
9.04402,5666
9.04877,5908
9.05353,5584
9.0583,5639
9.06307,5428
9.06782,5458
9.07258,6285
9.07735,6384
9.0821,5699
9.08687,6154
9.09163,5570
9.0964,5333
9.10115,5239
9.10592,5997
9.11068,6417
9.11543,5438
9.1202,5670
9.12497,6616
9.12973,6030
9.13448,5887
9.13925,5551
9.14402,5909
9.14877,5649
9.15353,5694
9.1583,5971
9.16307,6143
9.16782,6151
9.17258,5502
9.17735,5055
9.18212,4788
9.18687,6074
9.19163,5141
9.1964,4971
9.20115,5589
9.20592,5973
9.21068,6776
9.21545,5643
9.2202,4999
9.22497,5212
9.22973,5605
9.23448,6279
9.23925,5737
9.24402,5304
9.24878,5991
9.25353,4981
9.2583,6063
9.26307,5267
9.26782,5404
9.27258,5716
9.27735,5386
9.28212,5773
9.28687,6049
9.29163,6120
9.2964,4754
9.30115,5021
9.30592,5265
9.31068,5163
9.31545,5400
9.3202,5492
9.32497,5446
9.32973,6118
9.33448,5606
9.33925,5795
9.34402,5846
9.34878,5818
9.35353,5227
9.3583,5852
9.36307,5629
9.36783,5694
9.37258,4805
9.37735,5001
9.38212,5796
9.38687,4934
9.39163,4979
9.3964,5070
9.40117,5741
9.40592,5909
9.41068,5652
9.41545,6612
9.4202,6160
9.42497,5161
9.42973,5902
9.4345,5306
9.43925,5236
9.44402,5699
9.44878,6254
9.45353,5715
9.4583,5838
9.46307,5273
9.46783,5373
9.47258,5905
9.47735,5895
9.48212,5929
9.48687,5629
9.49163,5948
9.4964,5177
9.50117,6037
9.50592,5837
9.51068,4890
9.51545,5051
9.52022,6510
9.52497,5278
9.52973,6076
9.5345,6335
9.53925,5884
9.54402,5097
9.54878,5129
9.55355,5324
9.5583,5062
9.56307,5696
9.56783,6065
9.57258,5972
9.57735,4649
9.58212,5413
9.58688,5565
9.59163,5584
9.5964,5566
9.60117,4489
9.60592,5628
9.61068,6008
9.61545,5696
9.62022,5044
9.62497,5887
9.62973,5492
9.6345,6115
9.63925,5282
9.64402,5336
9.64878,6046
9.65355,5114
9.6583,5297
9.66307,6054
9.66783,5454
9.67258,5318
9.67735,5877
9.68212,5597
9.68688,5403
9.69163,5518
9.6964,5767
9.70117,5795
9.70593,5568
9.71068,5640
9.71545,5293
9.72022,5312
9.72497,5740
9.72973,4880
9.7345,4742
9.73927,5723
9.74402,6054
9.74878,6080
9.75355,5378
9.7583,6226
9.76307,6040
9.76783,5709
9.7726,6035
9.77735,5003
9.78212,5485
9.78688,5402
9.79163,5502
9.7964,5517
9.80117,5259
9.80593,5253
9.81068,5296
9.81545,5422
9.82022,5835
9.82497,5316
9.82973,5847
9.8345,6080
9.83927,4794
9.84402,5049
9.84878,5250
9.85355,5873
9.85832,5500
9.86307,5380
9.86783,4623
9.8726,5279
9.87735,5344
9.88212,6301
9.88688,4749
9.89165,5430
9.8964,4659
9.90117,5501
9.90593,5215
9.91068,6118
9.91545,5080
9.92022,5327
9.92498,5427
9.92973,5590
9.9345,5074
9.93927,5464
9.94402,5016
9.94878,5239
9.95355,6026
9.95832,5947
9.96307,5575
9.96783,5723
9.9726,5818
9.97735,5097
9.98212,5607
9.98688,5517
9.99165,4985
9.9964,5695
10.0012,5367
10.0059,6026
10.0107,5108
10.0155,6123
10.0202,5955
10.025,5767
10.0297,5556
10.0345,4918
10.0393,5923
10.044,6052
10.0488,6015
10.0536,4822
10.0583,5685
10.0631,4941
10.0678,5347
10.0726,5209
10.0774,5818
10.0821,4728
10.0869,5213
10.0917,5593
10.0964,5181
10.1012,6048
10.1059,5601
10.1107,4572
10.1155,5928
10.1202,5528
10.125,5300
10.1297,5842
10.1345,6003
10.1393,5521
10.144,4701
10.1488,6370
10.1536,5991
10.1583,4956
10.1631,5887
10.1678,6096
10.1726,5691
10.1774,7941
10.1821,11897
10.1869,21062
10.1917,39453
10.1964,61357
10.2012,94818
10.2059,139314
10.2107,200694
10.2155,279503
10.2202,390428
10.225,534685
10.2298,687849
10.2345,849268
10.2393,945355
10.244,906977
10.2488,775046
10.2536,622018
10.2583,481074
10.2631,374295
10.2678,296191
10.2726,253913
10.2774,213391
10.2821,182508
10.2869,168108
10.2917,148281
10.2964,131392
10.3012,117785
10.3059,106704
10.3107,99271
10.3155,90870
10.3202,86412
10.325,76244
10.3298,74076
10.3345,66585
10.3393,63393
10.344,59693
10.3488,55139
10.3536,52325
10.3583,48964
10.3631,44981
10.3678,43609
10.3726,38419
10.3774,37508
10.3821,36613
10.3869,32792
10.3917,33503
10.3964,30745
10.4012,30350
10.4059,29186
10.4107,27051
10.4155,26652
10.4202,23891
10.425,24090
10.4298,22502
10.4345,22320
10.4393,20242
10.444,18138
10.4488,20566
10.4536,17639
10.4583,16704
10.4631,16650
10.4678,16538
10.4726,16188
10.4774,14535
10.4821,15132
10.4869,12961
10.4917,14491
10.4964,13871
10.5012,12741
10.5059,13903
10.5107,11054
10.5155,12906
10.5202,12116
10.525,11756
10.5298,12236
10.5345,11383
10.5393,10568
10.544,11800
10.5488,12106
10.5536,10915
10.5583,11692
10.5631,9798
10.5679,9504
10.5726,9341
10.5774,9552
10.5821,9367
10.5869,9611
10.5917,9194
10.5964,9881
10.6012,8823
10.6059,9387
10.6107,9059
10.6155,8909
10.6202,8790
10.625,7302
10.6298,8392
10.6345,8136
10.6393,9254
10.644,9288
10.6488,8694
10.6536,8637
10.6583,7531
10.6631,8305
10.6679,8937
10.6726,8089
10.6774,7679
10.6821,7197
10.6869,7143
10.6917,7194
10.6964,7554
10.7012,7539
10.7059,8148
10.7107,6966
10.7155,6898
10.7202,7830
10.725,7536
10.7298,7455
10.7345,7409
10.7393,6988
10.744,5833
10.7488,7260
10.7536,7036
10.7583,7082
10.7631,7574
10.7679,7572
10.7726,7016
10.7774,6656
10.7821,7855
10.7869,7593
10.7917,7122
10.7964,6295
10.8012,7428
10.8059,6643
10.8107,6766
10.8155,6618
10.8202,7078
10.825,6165
10.8298,6961
10.8345,6285
10.8393,6609
10.844,6379
10.8488,6771
10.8536,6045
10.8583,7287
10.8631,6829
10.8679,7065
10.8726,6997
10.8774,5969
10.8821,6462
10.8869,6510
10.8917,6060
10.8964,6705
10.9012,6568
10.906,6556
10.9107,6006
10.9155,6799
10.9202,6432
10.925,6683
10.9298,6291
10.9345,6590
10.9393,6413
10.944,6554
10.9488,6404
10.9536,6838
10.9583,6711
10.9631,6270
10.9679,6255
10.9726,6417
10.9774,6668
10.9821,6357
10.9869,6625
10.9917,5995
10.9964,6592
11.0012,6150
11.006,6183
11.0107,6723
11.0155,5682
11.0202,5843
11.025,6049
11.0298,6214
11.0345,6248
11.0393,5562
11.044,6550
11.0488,6459
11.0536,6064
11.0583,6544
11.0631,5455
11.0679,6370
11.0726,5380
11.0774,6424
11.0821,6389
11.0869,5679
11.0917,6897
11.0964,6992
11.1012,6502
11.106,4904
11.1107,5720
11.1155,5996
11.1202,6530
11.125,6284
11.1298,6447
11.1345,6982
11.1393,5804
11.144,5873
11.1488,6495
11.1536,5841
11.1583,6908
11.1631,5840
11.1679,6060
11.1726,5211
11.1774,6231
11.1821,5249
11.1869,5465
11.1917,6747
11.1964,5559
11.2012,5958
11.206,6026
11.2107,5625
11.2155,5523
11.2202,5883
11.225,6021
11.2298,6039
11.2345,5793
11.2393,6194
11.2441,6395
11.2488,5541
11.2536,5979
11.2583,6437
11.2631,6251
11.2679,5630
11.2726,5723
11.2774,5623
11.2821,6414
11.2869,5836
11.2917,5710
11.2964,6080
11.3012,5640
11.306,6541
11.3107,5881
11.3155,6423
11.3202,4993
11.325,6249
11.3298,5969
11.3345,6240
11.3393,4580
11.3441,5863
11.3488,5038
11.3536,6179
11.3583,5145
11.3631,5474
11.3679,5284
11.3726,5241
11.3774,5470
11.3821,5848
11.3869,5391
11.3917,5277
11.3964,5809
11.4012,6442
11.406,6332
11.4107,5974
11.4155,6644
11.4202,5834
11.425,6359
11.4298,6269
11.4345,5788
11.4393,5129
11.4441,5626
11.4488,6687
11.4536,5260
11.4583,6198
11.4631,5566
11.4679,6247
11.4726,6059
11.4774,5935
11.4821,5506
11.4869,6457
11.4917,5457
11.4964,6006
11.5012,6293
11.506,5502
11.5107,5528
11.5155,5708
11.5202,6580
11.525,6030
11.5298,5856
11.5345,5526
11.5393,5904
11.5441,5080
11.5488,5353
11.5536,5905
11.5583,5510
11.5631,6074
11.5679,5153
11.5726,5973
11.5774,6103
11.5822,5625
11.5869,5619
11.5917,5642
11.5964,5413
11.6012,5276
11.606,4085
11.6107,5475
11.6155,5923
11.6202,5469
11.625,6137
11.6298,5697
11.6345,5244
11.6393,5900
11.6441,6148
11.6488,5452
11.6536,5888
11.6583,5824
11.6631,5868
11.6679,5450
11.6726,5697
11.6774,5006
11.6822,5424
11.6869,5780
11.6917,5841
11.6964,6139
11.7012,5988
11.706,6082
11.7107,5715
11.7155,5827
11.7202,5640
11.725,6125
11.7298,4720
11.7345,6666
11.7393,6855
11.7441,5659
11.7488,6087
11.7536,4798
11.7583,6070
11.7631,5024
11.7679,5317
11.7726,5456
11.7774,5674
11.7822,6041
11.7869,5769
11.7917,5408
11.7964,6250
11.8012,6065
11.806,6085
11.8107,5965
11.8155,5824
11.8202,6159
11.825,5362
11.8298,5704
11.8345,6059
11.8393,5590
11.8441,5876
11.8488,6163
11.8536,5003
11.8583,5901
11.8631,5817
11.8679,5977
11.8726,5102
11.8774,5387
11.8822,5553
11.8869,5162
11.8917,5400
11.8964,4974
11.9012,5215
11.906,6347
11.9107,5479
11.9155,5950
11.9203,5279
11.925,5747
11.9298,5703
11.9345,6171
11.9393,5482
11.9441,5788
11.9488,6377
11.9536,5567
11.9583,6339
11.9631,5178
11.9679,5939
11.9726,5484
11.9774,6474
11.9822,5875
11.9869,5740
11.9917,6108
11.9964,5078
12.0012,6203
12.006,5518
12.0107,6051
12.0155,5822
12.0203,4844
12.025,5894
12.0298,5903
12.0345,5342
12.0393,4981
12.0441,5785
12.0488,5510
12.0536,6313
12.0583,5496
12.0631,5945
12.0679,5089
12.0726,6237
12.0774,6297
12.0822,5162
12.0869,5510
12.0917,5527
12.0964,5786
12.1012,5600
12.106,5744
12.1107,5799
12.1155,6081
12.1203,5833
12.125,5338
12.1298,5073
12.1345,5285
12.1393,5579
12.1441,5923
12.1488,5644
12.1536,6396
12.1583,5826
12.1631,5291
12.1679,5653
12.1726,5435
12.1774,4924
12.1822,5933
12.1869,5269
12.1917,5966
12.1964,5855
12.2012,6151
12.206,5636
12.2107,5717
12.2155,5812
12.2203,5129
12.225,5458
12.2298,5605
12.2345,5627
12.2393,5788
12.2441,7060
12.2488,5932
12.2536,5358
12.2583,4962
12.2631,5841
12.2679,5412
12.2726,6422
12.2774,5006
12.2822,6134
12.2869,5450
12.2917,5138
12.2964,5401
12.3012,5833
12.306,5860
12.3107,5577
12.3155,5291
12.3203,5586
12.325,5391
12.3298,5667
12.3345,5731
12.3393,5823
12.3441,5165
12.3488,5752
12.3536,5447
12.3584,5780
12.3631,6227
12.3679,5098
12.3726,5220
12.3774,4953
12.3822,5754
12.3869,5713
12.3917,6121
12.3964,5972
12.4012,5567
12.406,6027
12.4107,5016
12.4155,5244
12.4203,5589
12.425,5312
12.4298,5350
12.4345,6052
12.4393,5202
12.4441,5178
12.4488,5367
12.4536,5988
12.4584,5795
12.4631,6505
12.4679,5628
12.4726,5417
12.4774,4985
12.4822,5118
12.4869,5814
12.4917,6021
12.4964,6088
12.5012,5518
12.506,5425
12.5107,6017
12.5155,5498
12.5203,5582
12.525,6619
12.5298,5648
12.5345,5338
12.5393,6059
12.5441,5708
12.5488,6415
12.5536,5320
12.5584,5757
12.5631,6176
12.5679,4910
12.5726,4974
12.5774,5618
12.5822,5793
12.5869,6187
12.5917,5733
12.5964,5569
12.6012,5659
12.606,5657
12.6107,5380
12.6155,5280
12.6203,5298
12.625,6244
12.6298,5226
12.6345,5081
12.6393,5470
12.6441,5232
12.6488,5541
12.6536,5456
12.6584,6228
12.6631,6146
12.6679,5424
12.6726,5390
12.6774,6070
12.6822,4930
12.6869,4807
12.6917,5313
12.6965,5706
12.7012,6277
12.706,6117
12.7107,5898
12.7155,5459
12.7203,5487
12.725,5137
12.7298,5333
12.7345,5879
12.7393,5433
12.7441,5489
12.7488,5749
12.7536,5397
12.7584,5564
12.7631,5700
12.7679,5630
12.7726,6101
12.7774,5341
12.7822,5390
12.7869,5372
12.7917,4792
12.7965,5790
12.8012,5144
12.806,5126
12.8107,5543
12.8155,4756
12.8203,5404
12.825,5421
12.8298,6355
12.8345,4735
12.8393,4857
12.8441,5727
12.8488,5125
12.8536,5055
12.8584,5472
12.8631,5939
12.8679,5732
12.8726,5690
12.8774,5985
12.8822,5617
12.8869,4952
12.8917,5621
12.8965,6227
12.9012,5505
12.906,5591
12.9107,5689
12.9155,5350
12.9203,5090
12.925,6102
12.9298,5284
12.9345,6024
12.9393,4620
12.9441,4806
12.9488,5849
12.9536,5475
12.9584,5654
12.9631,6034
12.9679,5451
12.9726,5175
12.9774,5372
12.9822,5354
12.9869,5605
12.9917,5203
12.9965,5984
13.0012,5792
13.006,5558
13.0107,4835
13.0155,4573
13.0203,6020
13.025,5794
13.0298,5261
13.0346,5754
13.0393,5291
13.0441,5881
13.0488,5150
13.0536,5591
13.0584,5497
13.0631,5246
13.0679,4657
13.0726,5366
13.0774,6369
13.0822,5660
13.0869,5675
13.0917,5310
13.0965,4852
13.1012,6081
13.106,5154
13.1107,6003
13.1155,5253
13.1203,5291
13.125,6157
13.1298,5825
13.1346,5414
13.1393,5541
13.1441,5401
13.1488,5634
13.1536,5367
13.1584,5061
13.1631,6134
13.1679,5607
13.1726,5657
13.1774,4952
13.1822,5658
13.1869,5922
13.1917,5940
13.1965,6715
13.2012,4961
13.206,5967
13.2107,5622
13.2155,4558
13.2203,5774
13.225,4842
13.2298,5235
13.2346,5345
13.2393,5062
13.2441,5714
13.2488,5036
13.2536,5424
13.2584,5717
13.2631,5494
13.2679,5343
13.2726,5091
13.2774,5692
13.2822,4722
13.2869,5135
13.2917,5721
13.2965,4777
13.3012,5811
13.306,5307
13.3107,5525
13.3155,5051
13.3203,5485
13.325,5296
13.3298,5752
13.3346,5616
13.3393,5427
13.3441,5881
13.3488,5587
13.3536,4973
13.3584,5361
13.3631,5974
13.3679,6020
13.3727,5719
13.3774,5500
13.3822,5234
13.3869,5309
13.3917,5322
13.3965,5040
13.4012,4787
13.406,5423
13.4107,6055
13.4155,6510
13.4203,4821
13.425,5379
13.4298,5333
13.4346,6140
13.4393,5868
13.4441,5801
13.4488,6209
13.4536,5795
13.4584,5400
13.4631,5382
13.4679,5126
13.4727,5165
13.4774,6472
13.4822,5121
13.4869,5324
13.4917,5608
13.4965,6072
13.5012,4602
13.506,5869
13.5107,5632
13.5155,5304
13.5203,4790
13.525,4994
13.5298,5981
13.5346,5450
13.5393,5476
13.5441,6223
13.5488,5770
13.5536,5752
13.5584,6177
13.5631,4955
13.5679,6081
13.5727,5435
13.5774,6033
13.5822,5271
13.5869,5452
13.5917,5300
13.5965,5956
13.6012,4526
13.606,5511
13.6107,5280
13.6155,4961
13.6203,5287
13.625,5115
13.6298,5708
13.6346,5597
13.6393,6105
13.6441,5299
13.6488,5530
13.6536,5343
13.6584,5367
13.6631,4811
13.6679,5622
13.6727,4752
13.6774,5233
13.6822,5483
13.6869,5757
13.6917,6015
13.6965,6081
13.7012,5581
13.706,4420
13.7108,6023
13.7155,4960
13.7203,5068
13.725,5010
13.7298,5473
13.7346,5453
13.7393,5331
13.7441,4845
13.7488,4227
13.7536,5576
13.7584,5674
13.7631,5437
13.7679,4703
13.7727,5528
13.7774,5853
13.7822,5383
13.7869,5179
13.7917,5507
13.7965,4859
13.8012,5401
13.806,5452
13.8108,5491
13.8155,5589
13.8203,4896
13.825,4893
13.8298,5770
13.8346,4558
13.8393,5507
13.8441,5536
13.8488,5036
13.8536,4242
13.8584,5834
13.8631,5580
13.8679,5865
13.8727,5963
13.8774,5226
13.8822,5098
13.8869,5555
13.8917,5368
13.8965,5078
13.9012,5466
13.906,5729
13.9108,5534
13.9155,4894
13.9203,5482
13.925,6287
13.9298,5468
13.9346,5228
13.9393,5450
13.9441,5533
13.9488,5805
13.9536,5485
13.9584,5273
13.9631,5476
13.9679,4710
13.9727,5659
13.9774,5846
13.9822,5811
13.9869,5546
13.9917,5190
13.9965,4870
14.0012,5332
14.006,4956
14.0108,5455
14.0155,5161
14.0203,4837
14.025,5445
14.0298,5959
14.0346,5357
14.0393,5093
14.0441,5508
14.0489,5739
14.0536,5628
14.0584,5083
14.0631,5551
14.0679,5470
14.0727,5703
14.0774,5081
14.0822,5028
14.0869,4877
14.0917,4216
14.0965,4679
14.1012,4419
14.106,4963
14.1108,4991
14.1155,5527
14.1203,5214
14.125,5553
14.1298,5597
14.1346,5421
14.1393,6434
14.1441,5370
14.1489,5200
14.1536,5090
14.1584,5029
14.1631,5658
14.1679,5822
14.1727,5221
14.1774,4894
14.1822,5402
14.1869,5271
14.1917,5458
14.1965,5366
14.2012,5501
14.206,5445
14.2108,5744
14.2155,4770
14.2203,5480
14.225,5315
14.2298,5398
14.2346,4868
14.2393,5404
14.2441,5800
14.2489,5639
14.2536,5712
14.2584,4982
14.2631,5176
14.2679,5303
14.2727,5959
14.2774,6188
14.2822,5063
14.2869,5812
14.2917,5148
14.2965,4870
14.3012,5299
14.306,5261
14.3108,5966
14.3155,6275
14.3203,4454
14.325,6096
14.3298,5065
14.3346,5612
14.3393,5848
14.3441,5206
14.3489,5748
14.3536,5415
14.3584,4831
14.3631,5565
14.3679,5363
14.3727,5020
14.3774,5952
14.3822,5782
14.387,5056
14.3917,5016
14.3965,6175
14.4012,5561
14.406,5186
14.4108,4796
14.4155,5164
14.4203,5247
14.425,5734
14.4298,5328
14.4346,5360
14.4393,4770
14.4441,5672
14.4489,5010
14.4536,5050
14.4584,4632
14.4631,5350
14.4679,6039
14.4727,5516
14.4774,5300
14.4822,5697
14.487,5858
14.4917,5488
14.4965,5153
14.5012,5516
14.506,4711
14.5108,5005
14.5155,5895
14.5203,5768
14.525,5376
14.5298,4957
14.5346,6106
14.5393,5355
14.5441,6508
14.5489,5055
14.5536,5974
14.5584,4939
14.5631,5393
14.5679,5136
14.5727,5268
14.5774,5355
14.5822,5418
14.587,5183
14.5917,5692
14.5965,5435
14.6012,5648
14.606,5570
14.6108,5140
14.6155,5719
14.6203,5223
14.625,5182
14.6298,4797
14.6346,5407
14.6393,5845
14.6441,5483
14.6489,6078
14.6536,5497
14.6584,6358
