D:\MassHunter\GCMS\1\data\Victoria Marland\22FEB\220223040.D 24 Feb 22  03:24 am
Start of data points
3.09153,944
3.0963,680
3.10107,952
3.10582,659
3.11058,1010
3.11535,671
3.12012,669
3.12487,757
3.12963,788
3.1344,693
3.13915,838
3.14392,825
3.14868,756
3.15345,635
3.1582,1054
3.16297,1229
3.16773,727
3.1725,786
3.17725,910
3.18202,953
3.18678,999
3.19153,762
3.1963,1081
3.20107,857
3.20583,909
3.21058,817
3.21535,877
3.22012,758
3.22487,940
3.22963,827
3.2344,949
3.23917,742
3.24392,899
3.24868,910
3.25345,926
3.2582,610
3.26297,884
3.26773,708
3.2725,838
3.27725,953
3.28202,890
3.28678,1172
3.29153,1094
3.2963,860
3.30107,846
3.30583,814
3.31058,948
3.31535,825
3.32012,632
3.32487,675
3.32963,831
3.3344,472
3.33917,595
3.34392,713
3.34868,746
3.35345,797
3.35822,664
3.36297,688
3.36773,660
3.3725,1059
3.37725,660
3.38202,873
3.38678,803
3.39155,691
3.3963,736
3.40107,726
3.40583,1011
3.41058,699
3.41535,657
3.42012,902
3.42488,835
3.42963,488
3.4344,691
3.43917,479
3.44392,767
3.44868,611
3.45345,878
3.45822,713
3.46297,759
3.46773,961
3.4725,608
3.47725,653
3.48202,717
3.48678,790
3.49155,966
3.4963,879
3.50107,848
3.50583,847
3.51058,817
3.51535,814
3.52012,694
3.52488,870
3.52963,709
3.5344,859
3.53917,934
3.54393,717
3.54868,631
3.55345,725
3.55822,762
3.56297,829
3.56773,681
3.5725,559
3.57727,669
3.58202,729
3.58678,782
3.59155,904
3.5963,854
3.60107,699
3.60583,792
3.6106,906
3.61535,860
3.62012,748
3.62488,646
3.62963,592
3.6344,736
3.63917,574
3.64393,847
3.64868,2271
3.65345,2456
3.65822,1405
3.66297,832
3.66773,546
3.6725,871
3.67727,878
3.68202,837
3.68678,745
3.69155,781
3.69632,884
3.70107,916
3.70583,746
3.7106,723
3.71535,900
3.72012,649
3.72488,623
3.72965,616
3.7344,821
3.73917,527
3.74393,850
3.74868,692
3.75345,624
3.75822,625
3.76298,821
3.76773,795
3.7725,909
3.77727,942
3.78202,698
3.78678,873
3.79155,619
3.79632,702
3.80107,686
3.80583,740
3.8106,787
3.81535,703
3.82012,787
3.82488,970
3.82965,1122
3.8344,851
3.83917,975
3.84393,724
3.84868,1180
3.85345,764
3.85822,629
3.86298,853
3.86773,1025
3.8725,654
3.87727,960
3.88203,679
3.88678,950
3.89155,689
3.89632,810
3.90107,821
3.90583,879
3.9106,816
3.91537,778
3.92012,687
3.92488,667
3.92965,656
3.9344,660
3.93917,915
3.94393,766
3.9487,676
3.95345,689
3.95822,734
3.96298,670
3.96773,2245
3.9725,7009
3.97727,7133
3.98203,4625
3.98678,3431
3.99155,2046
3.99632,1970
4.00107,1915
4.00583,1676
4.0106,1061
4.01537,1142
4.02012,825
4.02488,622
4.02965,990
4.03442,1028
4.03917,959
4.04393,865
4.0487,1071
4.05345,894
4.05822,864
4.06298,942
4.06775,833
4.0725,893
4.07727,642
4.08203,732
4.08678,694
4.09155,759
4.09632,803
4.10108,972
4.10583,835
4.1106,596
4.11537,799
4.12012,1232
4.12488,740
4.12965,1099
4.13442,1080
4.13917,768
4.14393,866
4.1487,793
4.15345,744
4.15822,660
4.16298,999
4.16775,791
4.1725,935
4.17727,942
4.18203,722
4.18678,967
4.19155,711
4.19632,557
4.20108,838
4.20583,851
4.2106,812
4.21537,1119
4.22013,794
4.22488,786
4.22965,893
4.23442,676
4.23917,590
4.24393,813
4.2487,1094
4.25347,733
4.25822,785
4.26298,700
4.26775,891
4.2725,762
4.27727,888
4.28203,839
4.2868,892
4.29155,886
4.29632,1141
4.30108,816
4.30583,894
4.3106,857
4.31537,945
4.32013,758
4.32488,835
4.32965,894
4.33442,805
4.33917,1028
4.34393,797
4.3487,675
4.35347,848
4.35822,914
4.36298,1009
4.36775,801
4.37252,811
4.37727,790
4.38203,932
4.3868,1390
4.39155,758
4.39632,1027
4.40108,819
4.40585,692
4.4106,1237
4.41537,1000
4.42013,897
4.42488,737
4.42965,721
4.43442,757
4.43918,875
4.44393,1256
4.4487,799
4.45347,1085
4.45822,1032
4.46298,1061
4.46775,846
4.47252,892
4.47727,914
4.48203,1049
4.4868,972
4.49155,908
4.49632,1037
4.50108,793
4.50585,713
4.5106,762
4.51537,1270
4.52013,826
4.52488,871
4.52965,847
4.53442,856
4.53918,1966
4.54393,957
4.5487,846
4.55347,897
4.55823,965
4.56298,896
4.56775,854
4.57252,722
4.57727,680
4.58203,1064
4.5868,1065
4.59157,717
4.59632,931
4.60108,1077
4.60585,1101
4.6106,1117
4.61537,794
4.62013,1088
4.6249,811
4.62965,752
4.63442,735
4.63918,815
4.64393,651
4.6487,802
4.65347,1032
4.65823,740
4.66298,817
4.66775,791
4.67252,884
4.67727,879
4.68203,961
4.6868,824
4.69157,1167
4.69632,857
4.70108,974
4.70585,1013
4.7106,1231
4.71537,1061
4.72013,1058
4.7249,711
4.72965,904
4.73442,769
4.73918,950
4.74395,991
4.7487,888
4.75347,1000
4.75823,1065
4.76298,1439
4.76775,1125
4.77252,1125
4.77728,1058
4.78203,1283
4.7868,1045
4.79157,1066
4.79632,1381
4.80108,983
4.80585,1239
4.81062,1250
4.81537,1345
4.82013,1137
4.8249,1057
4.82965,1069
4.83442,900
4.83918,909
4.84395,998
4.8487,843
4.85347,975
4.85823,896
4.86298,1007
4.86775,939
4.87252,1337
4.87728,1075
4.88203,1367
4.8868,1112
4.89157,887
4.89633,950
4.90108,801
4.90585,1320
4.91062,997
4.91537,1072
4.92013,961
4.9249,985
4.92967,726
4.93442,1286
4.93918,1197
4.94395,1049
4.9487,1140
4.95347,985
4.95823,945
4.963,942
4.96775,896
4.97252,1088
4.97728,1213
4.98203,1269
4.9868,1010
4.99157,876
4.99633,1259
5.00108,1280
5.00585,950
5.01062,1206
5.01537,1248
5.02013,1400
5.0249,1619
5.02967,1083
5.03442,805
5.03918,856
5.04395,868
5.0487,1061
5.05347,1048
5.05823,900
5.063,1206
5.06775,951
5.07252,1063
5.07728,746
5.08205,789
5.0868,1437
5.09157,966
5.09633,1418
5.10108,947
5.10585,909
5.11062,1221
5.11538,1069
5.12013,1182
5.1249,1395
5.12967,1384
5.13442,961
5.13918,905
5.14395,1223
5.14872,1228
5.15347,840
5.15823,945
5.163,3944
5.16775,9532
5.17252,9939
5.17728,4416
5.18205,1895
5.1868,801
5.19157,1188
5.19633,1242
5.20108,1165
5.20585,899
5.21062,894
5.21538,911
5.22013,1657
5.2249,1443
5.22967,1012
5.23443,1001
5.23918,1206
5.24395,1050
5.24872,1098
5.25347,1173
5.25823,983
5.263,1330
5.26777,1269
5.27252,1165
5.27728,1468
5.28205,1481
5.2868,1923
5.29157,1763
5.29633,2026
5.3011,998
5.30585,923
5.31062,984
5.31538,1007
5.32013,1073
5.3249,1228
5.32967,1046
5.33443,1095
5.33918,1075
5.34395,1436
5.34872,1521
5.35347,1940
5.35823,985
5.363,1289
5.36777,1243
5.37252,966
5.37728,911
5.38205,1163
5.3868,1116
5.39157,1190
5.39633,1721
5.4011,1241
5.40585,1368
5.41062,1172
5.41538,1234
5.42015,1033
5.4249,1315
5.42967,1064
5.43443,1179
5.43918,1048
5.44395,1563
5.44872,1315
5.45348,1078
5.45823,1046
5.463,1198
5.46777,2048
5.47252,7136
5.47728,12352
5.48205,6781
5.48682,2517
5.49157,1767
5.49633,1586
5.5011,1344
5.50585,1080
5.51062,1234
5.51538,1481
5.52015,1245
5.5249,1511
5.52967,1371
5.53443,1446
5.53918,2187
5.54395,1577
5.54872,1219
5.55348,1079
5.55823,1363
5.563,902
5.56777,1326
5.57253,1363
5.57728,1202
5.58205,1383
5.58682,1302
5.59157,1586
5.59633,1228
5.6011,1462
5.60587,1128
5.61062,1104
5.61538,1444
5.62015,1181
5.6249,1189
5.62967,1455
5.63443,1263
5.6392,1555
5.64395,1477
5.64872,1269
5.65348,1242
5.65823,1055
5.663,1695
5.66777,1288
5.67253,1302
5.67728,2549
5.68205,8396
5.68682,10336
5.69157,6535
5.69633,3963
5.7011,2690
5.70587,2731
5.71062,2610
5.71538,2196
5.72015,2193
5.7249,1709
5.72967,2308
5.73443,5639
5.7392,21645
5.74395,40311
5.74872,29055
5.75348,10402
5.75825,3216
5.763,1770
5.76777,1646
5.77253,1589
5.77728,1508
5.78205,1378
5.78682,1659
5.79158,1440
5.79633,1540
5.8011,1949
5.80587,3341
5.81062,7437
5.81538,8010
5.82015,3878
5.82492,1684
5.82967,1602
5.83443,1549
5.8392,1454
5.84395,1739
5.84872,1550
5.85348,1760
5.85825,1551
5.863,1481
5.86777,1687
5.87253,1600
5.87728,1514
5.88205,1549
5.88682,1619
5.89158,1665
5.89633,1492
5.9011,4085
5.90587,17757
5.91063,36594
5.91538,28599
5.92015,13182
5.92492,6369
5.92967,3496
5.93443,2989
5.9392,1850
5.94397,2492
5.94872,1831
5.95348,2237
5.95825,1957
5.963,1841
5.96777,1729
5.97253,1418
5.9773,1597
5.98205,2398
5.98682,2226
5.99158,2226
5.99633,1658
6.0011,1774
6.00587,2454
6.01063,2029
6.01538,3101
6.02015,2410
6.02492,1479
6.02967,1934
6.03443,2061
6.0392,2031
6.04397,1883
6.04872,1859
6.05348,1563
6.05825,1397
6.063,1515
6.06777,1897
6.07253,1540
6.0773,1675
6.08205,1737
6.08682,1838
6.09158,1717
6.09635,1825
6.1011,1728
6.10587,2544
6.11063,12860
6.11538,71820
6.12015,211831
6.12492,251057
6.12968,140442
6.13443,60296
6.1392,33412
6.14397,21497
6.14872,14878
6.15348,11235
6.15825,9741
6.16302,7821
6.16777,7384
6.17253,6125
6.1773,5582
6.18205,4750
6.18682,4646
6.19158,3676
6.19635,3514
6.2011,3745
6.20587,3159
6.21063,2740
6.21538,3461
6.22015,3371
6.22492,2699
6.22968,3297
6.23443,2547
6.2392,2681
6.24397,2707
6.24872,3018
6.25348,2618
6.25825,3255
6.26302,2463
6.26777,3021
6.27253,3455
6.2773,3967
6.28207,4485
6.28682,5109
6.29158,4390
6.29635,3945
6.3011,3405
6.30587,2848
6.31063,2556
6.3154,3859
6.32015,3084
6.32492,2762
6.32968,2956
6.33443,3797
6.3392,3270
6.34397,2957
6.34873,4016
6.35348,3101
6.35825,2898
6.36302,3047
6.36777,3060
6.37253,2817
6.3773,2586
6.38207,3093
6.38682,2249
6.39158,3129
6.39635,2951
6.4011,3440
6.40587,2969
6.41063,2370
6.4154,2821
6.42015,2207
6.42492,2786
6.42968,2943
6.43445,2617
6.4392,2612
6.44397,2596
6.44873,2801
6.45348,2771
6.45825,2567
6.46302,2730
6.46778,3020
6.47253,2928
6.4773,2874
6.48207,2906
6.48682,6365
6.49158,63310
6.49635,537689
6.50112,3164801
6.50587,7053475
6.51063,5400930
6.5154,1659749
6.52015,588683
6.52492,326193
6.52968,208850
6.53445,146939
6.5392,113884
6.54397,88392
6.54873,72880
6.55348,59568
6.55825,51991
6.56302,46328
6.56778,39591
6.57253,34890
6.5773,33863
6.58207,29890
6.58682,27669
6.59158,25811
6.59635,24008
6.60112,21258
6.60587,19521
6.61063,18239
6.6154,16777
6.62017,16378
6.62492,14929
6.62968,15862
6.63445,14293
6.6392,11938
6.64397,11738
6.64873,11006
6.6535,13025
6.65825,11747
6.66302,10969
6.66778,10770
6.67253,10616
6.6773,10388
6.68207,8505
6.68683,8623
6.69158,9092
6.69635,8276
6.70112,9664
6.70587,9176
6.71063,8331
6.7154,8698
6.72017,7617
6.72492,7402
6.72968,7710
6.73445,7449
6.7392,7130
6.74397,5848
6.74873,6592
6.7535,7312
6.75825,6269
6.76302,7048
6.76778,6462
6.77255,6964
6.7773,6880
6.78207,6622
6.78683,6440
6.79158,6233
6.79635,6710
6.80112,7010
6.80588,6111
6.81063,5845
6.8154,6610
6.82017,6128
6.82492,7091
6.82968,6302
6.83445,6630
6.83922,6223
6.84397,6971
6.84873,7959
6.8535,7108
6.85825,8522
6.86302,7647
6.86778,7189
6.87255,8251
6.8773,6716
6.88207,6042
6.88683,5633
6.89158,5358
6.89635,6595
6.90112,6119
6.90588,6336
6.91063,5231
6.9154,6128
6.92017,6060
6.92492,6057
6.92968,8291
6.93445,11814
6.93922,10890
6.94397,8481
6.94873,7396
6.9535,6657
6.95827,6552
6.96302,6470
6.96778,6107
6.97255,5846
6.9773,6232
6.98207,6218
6.98683,6386
6.9916,6241
6.99635,5333
7.00112,5671
7.00588,5211
7.01063,4832
7.0154,5717
7.02017,6298
7.02493,6798
7.02968,5387
7.03445,6217
7.03922,6584
7.04397,6328
7.04873,5524
7.0535,5804
7.05827,6278
7.06302,5512
7.06778,5875
7.07255,6188
7.0773,5986
7.08207,6063
7.08683,5631
7.0916,5136
7.09635,5963
7.10112,6039
7.10588,5150
7.11065,6305
7.1154,5919
7.12017,5482
7.12493,5933
7.12968,6551
7.13445,6060
7.13922,6238
7.14398,7067
7.14873,6919
7.1535,6662
7.15827,7019
7.16302,6508
7.16778,5474
7.17255,5397
7.17732,5594
7.18207,6839
7.18683,6552
7.1916,6438
7.19635,5771
7.20112,6334
7.20588,5602
7.21065,5658
7.2154,5997
7.22017,5724
7.22493,6942
7.22968,5306
7.23445,6342
7.23922,5909
7.24398,6168
7.24873,5781
7.2535,6598
7.25827,6041
7.26302,6131
7.26778,5643
7.27255,5801
7.27732,5918
7.28207,5776
7.28683,6485
7.2916,5480
7.29637,5954
7.30112,5291
7.30588,5778
7.31065,6661
7.3154,5787
7.32017,5924
7.32493,4650
7.3297,5881
7.33445,6240
7.33922,6204
7.34398,6117
7.34873,6318
7.3535,8278
7.35827,12365
7.36303,23116
7.36778,28766
7.37255,24402
7.37732,15063
7.38207,11205
7.38683,13402
7.3916,29136
7.39637,92605
7.40112,263246
7.40588,712618
7.41065,1617598
7.4154,2870830
7.42017,4318042
7.42493,4411121
7.4297,2262643
7.43445,976106
7.43922,560864
7.44398,386893
7.44873,284679
7.4535,225181
7.45827,183061
7.46303,152362
7.46778,131568
7.47255,115048
7.47732,102312
7.48208,90610
7.48683,80912
7.4916,71412
7.49637,63699
7.50112,61585
7.50588,55544
7.51065,51129
7.51542,47536
7.52017,43643
7.52493,38681
7.5297,37419
7.53445,34633
7.53922,33199
7.54398,30524
7.54875,29022
7.5535,28653
7.55827,26529
7.56303,25584
7.56778,23263
7.57255,23223
7.57732,22242
7.58208,20838
7.58683,19197
7.5916,18308
7.59637,19473
7.60112,19346
7.60588,18555
7.61065,18701
7.61542,17710
7.62017,17704
7.62493,18363
7.6297,16800
7.63447,15534
7.63922,15096
7.64398,15337
7.64875,13321
7.6535,14028
7.65827,12965
7.66303,12321
7.6678,12505
7.67255,12173
7.67732,11152
7.68208,12859
7.68683,12712
7.6916,12613
7.69637,10894
7.70113,11200
7.70588,10170
7.71065,10866
7.71542,11312
7.72017,10584
7.72493,11825
7.7297,11062
7.73447,11516
7.73922,11758
7.74398,10160
7.74875,11146
7.7535,9861
7.75827,9723
7.76303,10266
7.7678,8833
7.77255,9464
7.77732,10520
7.78208,11961
7.78683,16245
7.7916,23528
7.79637,22306
7.80113,19325
7.80588,14238
7.81065,11873
7.81542,11004
7.82018,10338
7.82493,10526
7.8297,8946
7.83447,8893
7.83922,9175
7.84398,9238
7.84875,9083
7.85352,9243
7.85827,8816
7.86303,9468
7.8678,9099
7.87255,9354
7.87732,9785
7.88208,11353
7.88685,11567
7.8916,11683
7.89637,9326
7.90113,9418
7.90588,8473
7.91065,8307
7.91542,7654
7.92018,8673
7.92493,7175
7.9297,8150
7.93447,8301
7.93922,7826
7.94398,7542
7.94875,8220
7.95352,7260
7.95827,6999
7.96303,9050
7.9678,7966
7.97257,6739
7.97732,7569
7.98208,7900
7.98685,8228
7.9916,6918
7.99637,7927
8.00113,7721
8.0059,7096
8.01065,8118
8.01542,7651
8.02018,6824
8.02493,6889
8.0297,7597
8.03447,6836
8.03923,7001
8.04398,7298
8.04875,7075
8.05352,7310
8.05827,7977
8.06303,7281
8.0678,6399
8.07257,7422
8.07732,7968
8.08208,7734
8.08685,6729
8.0916,7105
8.09637,7628
8.10113,7137
8.1059,8258
8.11065,6414
8.11542,7509
8.12018,8109
8.12493,9702
8.1297,9022
8.13447,9099
8.13923,8333
8.14398,7903
8.14875,7298
8.15352,7613
8.15828,6906
8.16303,6477
8.1678,8035
8.17257,7815
8.17732,6885
8.18208,6690
8.18685,7473
8.19162,7779
8.19637,6828
8.20113,7382
8.2059,6496
8.21065,8201
8.21542,7918
8.22018,7322
8.22495,7279
8.2297,7342
8.23447,6298
8.23923,7270
8.24398,7138
8.24875,7194
8.25352,6376
8.25828,6746
8.26303,7319
8.2678,6707
8.27257,6945
8.27732,7074
8.28208,7558
8.28685,6520
8.29162,6728
8.29637,7722
8.30113,7140
8.3059,7259
8.31065,6911
8.31542,7347
8.32018,6811
8.32495,5780
8.3297,6140
8.33447,6901
8.33923,6597
8.344,6921
8.34875,7354
8.35352,7250
8.35828,7003
8.36303,8204
8.3678,7280
8.37257,6845
8.37733,6784
8.38208,7658
8.38685,6987
8.39162,7093
8.39637,7030
8.40113,6059
8.4059,6168
8.41067,6348
8.41542,6776
8.42018,6685
8.42495,6618
8.4297,6903
8.43447,7031
8.43923,6308
8.444,6360
8.44875,6800
8.45352,6130
8.45828,6472
8.46303,7237
8.4678,5094
8.47257,6275
8.47733,6198
8.48208,7359
8.48685,7250
8.49162,6087
8.49638,5831
8.50113,7480
8.5059,6594
8.51067,7587
8.51542,6358
8.52018,5920
8.52495,6778
8.52972,7396
8.53447,6542
8.53923,6294
8.544,7077
8.54875,7576
8.55352,6167
8.55828,7699
8.56305,8277
8.5678,11945
8.57257,13333
8.57733,13992
8.58208,13394
8.58685,11720
8.59162,10166
8.59638,9569
8.60113,8842
8.6059,7096
8.61067,7498
8.61542,8790
8.62018,7584
8.62495,7388
8.62972,7256
8.63447,7014
8.63923,7597
8.644,6856
8.64875,6552
8.65352,6938
8.65828,7020
8.66305,7273
8.6678,6469
8.67257,6118
8.67733,6611
8.6821,6918
8.68685,6594
8.69162,7018
8.69638,6246
8.70113,6406
8.7059,6142
8.71067,7169
8.71543,6908
8.72018,6289
8.72495,6979
8.72972,6826
8.73447,5657
8.73923,6422
8.744,7575
8.74877,6537
8.75352,7448
8.75828,6067
8.76305,6802
8.7678,6207
8.77257,6608
8.77733,7075
8.7821,6167
8.78685,6174
8.79162,5531
8.79638,6978
8.80113,6164
8.8059,6899
8.81067,7153
8.81543,5970
8.82018,6319
8.82495,7484
8.82972,6372
8.83448,6374
8.83923,5370
8.844,6891
8.84877,6604
8.85352,6011
8.85828,6584
8.86305,6329
8.86782,6151
8.87257,6098
8.87733,7811
8.8821,6193
8.88685,6334
8.89162,6431
8.89638,5997
8.90115,6402
8.9059,7418
8.91067,6241
8.91543,6715
8.92018,5979
8.92495,7188
8.92972,6954
8.93448,7415
8.93923,6717
8.944,6321
8.94877,6212
8.95352,7770
8.95828,6760
8.96305,6707
8.96782,6936
8.97257,6303
8.97733,6885
8.9821,7174
8.98685,6403
8.99162,5147
8.99638,7037
9.00115,6235
9.0059,6895
9.01067,5417
9.01543,6369
9.0202,7062
9.02495,7009
9.02972,6956
9.03448,6845
9.03923,6282
9.044,5774
9.04877,6336
9.05353,6030
9.05828,7813
9.06305,6480
9.06782,6736
9.07257,6335
9.07733,6613
9.0821,6222
9.08687,5976
9.09162,5218
9.09638,7114
9.10115,7025
9.1059,5770
9.11067,6326
9.11543,6208
9.1202,6066
9.12495,6515
9.12972,6361
9.13448,6415
9.13923,7243
9.144,5592
9.14877,6278
9.15353,5927
9.15828,5977
9.16305,6559
9.16782,6285
9.17258,6630
9.17733,6353
9.1821,6280
9.18687,5966
9.19162,6298
9.19638,5947
9.20115,6927
9.20592,6307
9.21067,6730
9.21543,6283
9.2202,6260
9.22495,6220
9.22972,6126
9.23448,6462
9.23925,6698
9.244,6030
9.24877,6531
9.25353,6124
9.25828,6010
9.26305,5943
9.26782,6915
9.27258,6423
9.27733,5590
9.2821,6959
9.28687,5923
9.29162,6345
9.29638,6592
9.30115,6497
9.30592,6454
9.31067,6391
9.31543,6217
9.3202,6131
9.32495,6152
9.32972,6334
9.33448,6627
9.33925,6671
9.344,6647
9.34877,6610
9.35353,6190
9.3583,6632
9.36305,6162
9.36782,6801
9.37258,6371
9.37733,6076
9.3821,7167
9.38687,5597
9.39163,6824
9.39638,6054
9.40115,6244
9.40592,5742
9.41067,6050
9.41543,6778
9.4202,6921
9.42497,6469
9.42972,5971
9.43448,5674
9.43925,6537
9.444,6400
9.44877,5823
9.45353,6181
9.4583,6847
9.46305,6522
9.46782,6277
9.47258,5940
9.47733,6731
9.4821,7001
9.48687,6008
9.49163,6243
9.49638,6906
9.50115,6594
9.50592,6760
9.51068,6195
9.51543,6278
9.5202,5830
9.52497,6535
9.52972,6373
9.53448,6974
9.53925,6359
9.54402,6264
9.54877,6654
9.55353,6248
9.5583,5327
9.56305,5712
9.56782,5758
9.57258,6808
9.57735,6560
9.5821,5749
9.58687,5584
9.59163,5231
9.59638,6240
9.60115,5977
9.60592,5879
9.61068,6176
9.61543,6063
9.6202,5963
9.62497,6083
9.62972,5393
9.63448,6101
9.63925,5912
9.64402,6384
9.64877,5938
9.65353,7075
9.6583,5983
9.66305,5482
9.66782,6126
9.67258,6256
9.67735,6411
9.6821,5724
9.68687,6767
9.69163,5955
9.6964,6192
9.70115,5844
9.70592,5677
9.71068,6878
9.71543,5867
9.7202,6932
9.72497,6577
9.72973,6256
9.73448,5910
9.73925,6017
9.74402,5701
9.74877,6689
9.75353,6462
9.7583,5813
9.76307,6053
9.76782,6207
9.77258,6050
9.77735,5993
9.7821,5569
9.78687,6682
9.79163,5421
9.7964,6350
9.80115,6345
9.80592,5841
9.81068,6203
9.81543,6201
9.8202,6351
9.82497,6200
9.82973,6102
9.83448,6571
9.83925,5944
9.84402,7011
9.84877,5806
9.85353,6456
9.8583,6064
9.86307,6169
9.86782,6094
9.87258,6110
9.87735,6574
9.88212,5858
9.88687,6757
9.89163,5640
9.8964,5994
9.90115,6227
9.90592,5944
9.91068,6292
9.91545,5875
9.9202,6653
9.92497,6031
9.92973,6189
9.93448,6214
9.93925,5848
9.94402,6088
9.94878,6092
9.95353,6076
9.9583,6024
9.96307,5300
9.96782,6379
9.97258,6020
9.97735,5804
9.98212,6113
9.98687,6233
9.99163,6941
9.9964,5998
10.0012,6230
10.0059,5836
10.0107,6683
10.0155,5521
10.0202,6342
10.025,6838
10.0297,5583
10.0345,5579
10.0393,6810
10.044,6181
10.0488,5946
10.0535,5919
10.0583,5708
10.0631,5846
10.0678,6605
10.0726,5986
10.0774,6588
10.0821,7014
10.0869,6008
10.0916,6788
10.0964,6333
10.1012,5839
10.1059,6284
10.1107,5983
10.1155,5609
10.1202,5371
10.125,5756
10.1297,7007
10.1345,6151
10.1393,6426
10.144,5902
10.1488,6208
10.1535,5312
10.1583,6367
10.1631,6764
10.1678,6367
10.1726,7486
10.1774,11165
10.1821,17075
10.1869,29577
10.1916,48590
10.1964,83052
10.2012,122813
10.2059,182413
10.2107,262580
10.2155,373916
10.2202,521858
10.225,722779
10.2297,961239
10.2345,1255587
10.2393,1543990
10.244,1880697
10.2488,2091386
10.2536,2112328
10.2583,1855792
10.2631,1410017
10.2678,1047823
10.2726,785605
10.2774,620789
10.2821,519658
10.2869,433146
10.2916,379936
10.2964,332833
10.3012,289823
10.3059,264891
10.3107,236279
10.3155,210726
10.3202,196746
10.325,177163
10.3297,165578
10.3345,152585
10.3393,142346
10.344,129343
10.3488,123840
10.3536,111561
10.3583,104397
10.3631,97112
10.3678,92056
10.3726,87769
10.3774,83344
10.3821,78699
10.3869,72398
10.3916,70895
10.3964,65519
10.4012,60937
10.4059,58828
10.4107,55862
10.4155,53368
10.4202,49191
10.425,48260
10.4297,45903
10.4345,41980
10.4393,40793
10.444,39457
10.4488,38594
10.4536,35278
10.4583,36249
10.4631,33295
10.4678,31393
10.4726,30644
10.4774,27671
10.4821,28473
10.4869,26781
10.4916,26308
10.4964,25633
10.5012,23998
10.5059,21926
10.5107,24123
10.5155,21701
10.5202,22462
10.525,21023
10.5297,19282
10.5345,19750
10.5393,17703
10.544,18372
10.5488,17774
10.5536,19090
10.5583,17422
10.5631,15306
10.5678,15199
10.5726,16390
10.5774,14987
10.5821,14462
10.5869,16662
10.5917,14487
10.5964,13959
10.6012,14455
10.6059,14868
10.6107,14060
10.6155,12280
10.6202,13842
10.625,13076
10.6297,14463
10.6345,12725
10.6393,11738
10.644,11119
10.6488,11891
10.6536,11165
10.6583,12130
10.6631,11999
10.6678,11298
10.6726,11749
10.6774,10990
10.6821,9833
10.6869,11522
10.6917,9462
10.6964,10743
10.7012,10584
10.7059,10388
10.7107,11045
10.7155,11177
10.7202,8422
10.725,9164
10.7297,9389
10.7345,8069
10.7393,8777
10.744,9400
10.7488,9860
10.7536,9039
10.7583,9601
10.7631,8209
10.7678,8281
10.7726,8896
10.7774,8443
10.7821,7617
10.7869,8839
10.7917,8270
10.7964,8314
10.8012,8783
10.8059,8528
10.8107,7690
10.8155,7634
10.8202,8113
10.825,8141
10.8297,8627
10.8345,8734
10.8393,6929
10.844,7995
10.8488,8074
10.8536,9148
10.8583,8197
10.8631,7125
10.8678,7209
10.8726,7287
10.8774,6998
10.8821,7158
10.8869,7677
10.8917,7031
10.8964,7847
10.9012,7032
10.9059,8269
10.9107,7111
10.9155,7920
10.9202,6699
10.925,7156
10.9298,6708
10.9345,7336
10.9393,7268
10.944,6760
10.9488,7593
10.9536,7074
10.9583,9042
10.9631,7885
10.9678,7153
10.9726,6925
10.9774,7005
10.9821,7275
10.9869,7366
10.9917,6955
10.9964,6642
11.0012,6446
11.0059,7669
11.0107,8157
11.0155,7375
11.0202,7508
11.025,6377
11.0298,6516
11.0345,7983
11.0393,6645
11.044,7218
11.0488,6556
11.0536,7026
11.0583,7062
11.0631,7134
11.0678,6627
11.0726,7552
11.0774,7895
11.0821,6363
11.0869,7408
11.0917,6537
11.0964,7044
11.1012,6799
11.1059,6614
11.1107,7321
11.1155,6968
11.1202,6805
11.125,6908
11.1298,6706
11.1345,6499
11.1393,6670
11.144,7546
11.1488,6866
11.1536,7225
11.1583,6948
11.1631,6861
11.1678,6562
11.1726,7147
11.1774,6930
11.1821,6672
11.1869,6872
11.1917,7717
11.1964,7010
11.2012,6150
11.2059,6650
11.2107,6679
11.2155,6154
11.2202,7217
11.225,6270
11.2298,6451
11.2345,6038
11.2393,6835
11.244,6124
11.2488,5842
11.2536,6111
11.2583,6856
11.2631,7629
11.2679,6940
11.2726,6274
11.2774,6557
11.2821,6019
11.2869,6532
11.2917,5905
11.2964,6879
11.3012,6629
11.3059,6045
11.3107,5871
11.3155,6599
11.3202,6260
11.325,6713
11.3298,6812
11.3345,6326
11.3393,5841
11.344,5756
11.3488,6356
11.3536,5569
11.3583,6193
11.3631,6632
11.3679,7159
11.3726,6060
11.3774,7431
11.3821,6009
11.3869,5843
11.3917,6871
11.3964,6601
11.4012,6736
11.4059,7435
11.4107,7041
11.4155,7097
11.4202,6313
11.425,6660
11.4298,7865
11.4345,6809
11.4393,6417
11.444,6957
11.4488,6938
11.4536,7084
11.4583,6804
11.4631,5630
11.4679,6133
11.4726,6030
11.4774,6367
11.4821,6365
11.4869,7091
11.4917,6796
11.4964,6276
11.5012,7017
11.5059,5862
11.5107,5781
11.5155,6269
11.5202,6507
11.525,6692
11.5298,6485
11.5345,5868
11.5393,6018
11.544,6292
11.5488,6579
11.5536,6441
11.5583,6371
11.5631,6898
11.5679,7132
11.5726,6271
11.5774,6497
11.5821,6724
11.5869,6606
11.5917,6875
11.5964,6405
11.6012,5691
11.606,7469
11.6107,5560
11.6155,5988
11.6202,6036
11.625,6469
11.6298,6854
11.6345,6598
11.6393,6645
11.644,5815
11.6488,5640
11.6536,6694
11.6583,7110
11.6631,6339
11.6679,5919
11.6726,5568
11.6774,5550
11.6821,6742
11.6869,6405
11.6917,6465
11.6964,6368
11.7012,5649
11.706,5726
11.7107,6213
11.7155,5839
11.7202,6529
11.725,7367
11.7298,5544
11.7345,6336
11.7393,5509
11.744,5331
11.7488,5539
11.7536,6096
11.7583,6274
11.7631,5348
11.7679,6287
11.7726,6273
11.7774,6011
11.7821,6556
11.7869,6548
11.7917,6833
11.7964,7004
11.8012,6539
11.806,5937
11.8107,6095
11.8155,6961
11.8202,6614
11.825,5968
11.8298,6255
11.8345,6176
11.8393,6013
11.844,5403
11.8488,6000
11.8536,6564
11.8583,6484
11.8631,6203
11.8679,6169
11.8726,5206
11.8774,6296
11.8821,7478
11.8869,6536
11.8917,5561
11.8964,5776
11.9012,5765
11.906,6395
11.9107,5917
11.9155,6679
11.9202,5746
11.925,5837
11.9298,6853
11.9345,5772
11.9393,5673
11.9441,6371
11.9488,6602
11.9536,5969
11.9583,5861
11.9631,5664
11.9679,6774
11.9726,5636
11.9774,6683
11.9821,6134
11.9869,5921
11.9917,7197
11.9964,6265
12.0012,5269
12.006,6056
12.0107,5718
12.0155,6891
12.0202,5813
12.025,6238
12.0298,7004
12.0345,5484
12.0393,6395
12.0441,5841
12.0488,5445
12.0536,5231
12.0583,7072
12.0631,6236
12.0679,6071
12.0726,6550
12.0774,6345
12.0821,5261
12.0869,6503
12.0917,6206
12.0964,6236
12.1012,5747
12.106,6470
12.1107,5521
12.1155,6314
12.1202,5484
12.125,6555
12.1298,6274
12.1345,6305
12.1393,5999
12.1441,5666
12.1488,6305
12.1536,6029
12.1583,5482
12.1631,6139
12.1679,6428
12.1726,7018
12.1774,6487
12.1821,6138
12.1869,5953
12.1917,5872
12.1964,6188
12.2012,5587
12.206,6285
12.2107,7141
12.2155,6097
12.2202,5488
12.225,5888
12.2298,6058
12.2345,5721
12.2393,6243
12.2441,5947
12.2488,5401
12.2536,6713
12.2583,7062
12.2631,5275
12.2679,5915
12.2726,5860
12.2774,5923
12.2822,5271
12.2869,5724
12.2917,5723
12.2964,6104
12.3012,5870
12.306,6089
12.3107,5509
12.3155,6225
12.3202,7039
12.325,6375
12.3298,5931
12.3345,6580
12.3393,6405
12.3441,6396
12.3488,5383
12.3536,5703
12.3583,6169
12.3631,6788
12.3679,5145
12.3726,5744
12.3774,6280
12.3822,6254
12.3869,6581
12.3917,5981
12.3964,5859
12.4012,6684
12.406,5587
12.4107,6068
12.4155,6014
12.4202,5540
12.425,6071
12.4298,5317
12.4345,6083
12.4393,5453
12.4441,6279
12.4488,6575
12.4536,6516
12.4583,6106
12.4631,6195
12.4679,5851
12.4726,6422
12.4774,5865
12.4822,6357
12.4869,6021
12.4917,5793
12.4964,6329
12.5012,6105
12.506,5414
12.5107,6659
12.5155,6207
12.5202,6116
12.525,5718
12.5298,5494
12.5345,5941
12.5393,6051
12.5441,6103
12.5488,5860
12.5536,6120
12.5583,6396
12.5631,5916
12.5679,5505
12.5726,6054
12.5774,6326
12.5822,5673
12.5869,4920
12.5917,5670
12.5964,6407
12.6012,6002
12.606,5654
12.6107,6363
12.6155,5310
12.6203,6311
12.625,5796
12.6298,6498
12.6345,6007
12.6393,6150
12.6441,6144
12.6488,5808
12.6536,6830
12.6583,5798
12.6631,5593
12.6679,5906
12.6726,5397
12.6774,5629
12.6822,5915
12.6869,6165
12.6917,5555
12.6964,5369
12.7012,6477
12.706,5541
12.7107,5813
12.7155,5494
12.7203,6326
12.725,5569
12.7298,5940
12.7345,5850
12.7393,5660
12.7441,5710
12.7488,5642
12.7536,6406
12.7583,5664
12.7631,6060
12.7679,5679
12.7726,6036
12.7774,5922
12.7822,6103
12.7869,6327
12.7917,6109
12.7964,5262
12.8012,5975
12.806,6691
12.8107,6118
12.8155,6489
12.8203,5524
12.825,5824
12.8298,5655
12.8345,6227
12.8393,6013
12.8441,5530
12.8488,4735
12.8536,5782
12.8583,6096
12.8631,5911
12.8679,5581
12.8726,6296
12.8774,5337
12.8822,6010
12.8869,5321
12.8917,6188
12.8964,5135
12.9012,5465
12.906,5172
12.9107,6040
12.9155,5164
12.9203,6650
12.925,5810
12.9298,5677
12.9345,6615
12.9393,5806
12.9441,5894
12.9488,5871
12.9536,5957
12.9584,5069
12.9631,6654
12.9679,6187
12.9726,5851
12.9774,5750
12.9822,5492
12.9869,5795
12.9917,5689
12.9964,6113
13.0012,5230
13.006,5206
13.0107,6031
13.0155,5172
13.0203,5872
13.025,5261
13.0298,5375
13.0345,6433
13.0393,5415
13.0441,5254
13.0488,6350
13.0536,6008
13.0584,5290
13.0631,5448
13.0679,6345
13.0726,6075
13.0774,6465
13.0822,5422
13.0869,5869
13.0917,5825
13.0964,6094
13.1012,6705
13.106,5103
13.1107,6380
13.1155,6081
13.1203,5783
13.125,5671
13.1298,5198
13.1345,6216
13.1393,6061
13.1441,5905
13.1488,6207
13.1536,5913
13.1584,5255
13.1631,6378
13.1679,5113
13.1726,5411
13.1774,5489
13.1822,5976
13.1869,6358
13.1917,6120
13.1964,5718
13.2012,5416
13.206,5832
13.2107,5724
13.2155,5891
13.2203,6559
13.225,5862
13.2298,6281
13.2345,6195
13.2393,5350
13.2441,5536
13.2488,6056
13.2536,6195
13.2584,6439
13.2631,5856
13.2679,6421
13.2726,5201
13.2774,5780
13.2822,5604
13.2869,5844
13.2917,5799
13.2965,6501
13.3012,4982
13.306,6877
13.3107,5680
13.3155,6416
13.3203,5136
13.325,5876
13.3298,5548
13.3345,5357
13.3393,5582
13.3441,5942
13.3488,6618
13.3536,5054
13.3584,5496
13.3631,5674
13.3679,5993
13.3726,6093
13.3774,5325
13.3822,5440
13.3869,5952
13.3917,5531
13.3965,4264
13.4012,5743
13.406,6077
13.4107,5855
13.4155,5655
13.4203,5676
13.425,6009
13.4298,6066
13.4345,5867
13.4393,6093
13.4441,4679
13.4488,6145
13.4536,5565
13.4584,5965
13.4631,5910
13.4679,5345
13.4726,5613
13.4774,5957
13.4822,6330
13.4869,6256
13.4917,5600
13.4965,5986
13.5012,5844
13.506,5506
13.5107,5986
13.5155,5721
13.5203,5681
13.525,6381
13.5298,4964
13.5345,6246
13.5393,6373
13.5441,5560
13.5488,5578
13.5536,5705
13.5584,5565
13.5631,6897
13.5679,6165
13.5726,4996
13.5774,5928
13.5822,5804
13.5869,5928
13.5917,5791
13.5965,5956
13.6012,5842
13.606,5785
13.6107,7509
13.6155,5728
13.6203,5826
13.625,6193
13.6298,5518
13.6346,6252
13.6393,5750
13.6441,5917
13.6488,6132
13.6536,5285
13.6584,5512
13.6631,5680
13.6679,6035
13.6726,5671
13.6774,6107
13.6822,5583
13.6869,6091
13.6917,5334
13.6965,5063
13.7012,4989
13.706,5564
13.7107,6530
13.7155,6047
13.7203,5938
13.725,5361
13.7298,5287
13.7346,6005
13.7393,5601
13.7441,5313
13.7488,4942
13.7536,5588
13.7584,5433
13.7631,6301
13.7679,5862
13.7726,5268
13.7774,5759
13.7822,5606
13.7869,5472
13.7917,5177
13.7965,5957
13.8012,5772
13.806,6413
13.8107,6182
13.8155,5841
13.8203,5588
13.825,5474
13.8298,5525
13.8346,5656
13.8393,5947
13.8441,6426
13.8488,6194
13.8536,6492
13.8584,6117
13.8631,5335
13.8679,5085
13.8726,6263
13.8774,5710
13.8822,5324
13.8869,5468
13.8917,5820
13.8965,5467
13.9012,6141
13.906,6014
13.9107,5826
13.9155,5442
13.9203,6317
13.925,5492
13.9298,5513
13.9346,7009
13.9393,5787
13.9441,5969
13.9488,5770
13.9536,5015
13.9584,5379
13.9631,6066
13.9679,6275
13.9727,5908
13.9774,5054
13.9822,5208
13.9869,5386
13.9917,6222
13.9965,5807
14.0012,6009
14.006,5695
14.0107,6312
14.0155,6190
14.0203,5968
14.025,6932
14.0298,5722
14.0346,5749
14.0393,5813
14.0441,6422
14.0488,5965
14.0536,5843
14.0584,5239
14.0631,5076
14.0679,6623
14.0727,5051
14.0774,5593
14.0822,5098
14.0869,5561
14.0917,5397
14.0965,5495
14.1012,5921
14.106,6115
14.1107,5687
14.1155,5851
14.1203,6140
14.125,6012
14.1298,6381
14.1346,5658
14.1393,5802
14.1441,5709
14.1488,5908
14.1536,5711
14.1584,6200
14.1631,5890
14.1679,5927
14.1727,6342
14.1774,6286
14.1822,6044
14.1869,5653
14.1917,5676
14.1965,5824
14.2012,5149
14.206,5300
14.2107,6082
14.2155,6136
14.2203,4652
14.225,6086
14.2298,5716
14.2346,5284
14.2393,5507
14.2441,5637
14.2488,5324
14.2536,6084
14.2584,5478
14.2631,5577
14.2679,5292
14.2727,5997
14.2774,5283
14.2822,6004
14.2869,6559
14.2917,5327
14.2965,6089
14.3012,5109
14.306,5255
14.3107,5793
14.3155,5292
14.3203,6114
14.325,5786
14.3298,5602
14.3346,5070
14.3393,5829
14.3441,5748
14.3488,5652
14.3536,6013
14.3584,5023
14.3631,5397
14.3679,5969
14.3727,6415
14.3774,4942
14.3822,5476
14.3869,5823
14.3917,4923
14.3965,5397
14.4012,5604
14.406,5873
14.4108,6227
14.4155,5631
14.4203,5353
14.425,6332
14.4298,6059
14.4346,5649
14.4393,5951
14.4441,5892
14.4488,6185
14.4536,6176
14.4584,6017
14.4631,5219
14.4679,5916
14.4727,5004
14.4774,5752
14.4822,5459
14.4869,5409
14.4917,5691
14.4965,5606
14.5012,5950
14.506,5609
14.5108,5896
14.5155,5570
14.5203,5293
14.525,5237
14.5298,5756
14.5346,5384
14.5393,5635
14.5441,5044
14.5488,5464
14.5536,5733
14.5584,6268
14.5631,5735
14.5679,5874
14.5727,5858
14.5774,5643
14.5822,5228
14.5869,6105
14.5917,6185
14.5965,5683
14.6012,6552
14.606,5053
14.6108,5585
14.6155,5236
14.6203,6037
14.625,6681
14.6298,6235
14.6346,5854
14.6393,5067
14.6441,5900
14.6488,6235
14.6536,5456
14.6584,5728
