D:\MassHunter\GCMS\1\data\Victoria Marland\22FEB\220223038.D 24 Feb 22  02:44 am
Start of data points
3.09163,523
3.09638,724
3.10115,835
3.10592,733
3.11068,915
3.11543,637
3.1202,560
3.12497,944
3.12972,914
3.13448,646
3.13925,812
3.14402,626
3.14877,860
3.15353,936
3.1583,776
3.16305,851
3.16782,865
3.17258,776
3.17735,1109
3.1821,714
3.18687,1020
3.19163,867
3.19638,884
3.20115,862
3.20592,748
3.21068,797
3.21543,502
3.2202,705
3.22497,958
3.22972,884
3.23448,723
3.23925,1006
3.24402,759
3.24877,829
3.25353,758
3.2583,988
3.26305,908
3.26782,908
3.27258,666
3.27735,830
3.2821,950
3.28687,718
3.29163,683
3.2964,933
3.30115,866
3.30592,1023
3.31068,829
3.31543,719
3.3202,910
3.32497,706
3.32973,760
3.33448,591
3.33925,866
3.34402,1026
3.34877,717
3.35353,913
3.3583,692
3.36307,776
3.36782,670
3.37258,725
3.37735,678
3.3821,570
3.38687,1130
3.39163,783
3.3964,736
3.40115,771
3.40592,914
3.41068,690
3.41543,826
3.4202,731
3.42497,536
3.42973,807
3.43448,675
3.43925,1028
3.44402,803
3.44878,581
3.45353,763
3.4583,1062
3.46307,657
3.46782,876
3.47258,611
3.47735,663
3.48212,663
3.48687,774
3.49163,899
3.4964,632
3.50115,705
3.50592,1000
3.51068,633
3.51545,894
3.5202,840
3.52497,667
3.52973,724
3.53448,500
3.53925,963
3.54402,796
3.54878,665
3.55353,957
3.5583,722
3.56307,1401
3.56782,600
3.57258,640
3.57735,551
3.58212,825
3.58687,847
3.59163,579
3.5964,588
3.60115,1081
3.60592,799
3.61068,1128
3.61545,801
3.6202,971
3.62497,662
3.62973,719
3.6345,806
3.63925,616
3.64402,707
3.64878,1107
3.65353,1225
3.6583,1174
3.66307,461
3.66783,690
3.67258,793
3.67735,1047
3.68212,874
3.68687,878
3.69163,682
3.6964,689
3.70117,641
3.70592,891
3.71068,758
3.71545,587
3.7202,606
3.72497,802
3.72973,494
3.7345,751
3.73925,883
3.74402,713
3.74878,804
3.75353,640
3.7583,727
3.76307,670
3.76783,772
3.77258,732
3.77735,1096
3.78212,532
3.78688,599
3.79163,569
3.7964,1022
3.80117,717
3.80592,590
3.81068,857
3.81545,581
3.82022,773
3.82497,562
3.82973,886
3.8345,1020
3.83925,828
3.84402,721
3.84878,672
3.85355,781
3.8583,888
3.86307,838
3.86783,675
3.87258,737
3.87735,782
3.88212,1233
3.88688,724
3.89163,614
3.8964,668
3.90117,1028
3.90592,733
3.91068,879
3.91545,921
3.92022,619
3.92497,872
3.92973,787
3.9345,814
3.93925,742
3.94402,678
3.94878,743
3.95355,636
3.9583,639
3.96307,596
3.96783,676
3.9726,1607
3.97735,3303
3.98212,4214
3.98688,3265
3.99163,2382
3.9964,1836
4.00117,1765
4.00593,1184
4.01068,1356
4.01545,1402
4.02022,1373
4.02497,1127
4.02973,1033
4.0345,1120
4.03927,1225
4.04402,687
4.04878,931
4.05355,679
4.0583,940
4.06307,753
4.06783,807
4.0726,996
4.07735,775
4.08212,936
4.08688,720
4.09163,797
4.0964,684
4.10117,576
4.10593,705
4.11068,659
4.11545,725
4.12022,1092
4.12497,949
4.12973,975
4.1345,719
4.13927,926
4.14402,809
4.14878,854
4.15355,1053
4.15832,800
4.16307,743
4.16783,805
4.1726,930
4.17735,765
4.18212,791
4.18688,945
4.19165,745
4.1964,858
4.20117,867
4.20593,877
4.21068,1000
4.21545,1003
4.22022,772
4.22498,987
4.22973,928
4.2345,864
4.23927,1046
4.24402,902
4.24878,974
4.25355,772
4.25832,898
4.26307,746
4.26783,931
4.2726,803
4.27735,780
4.28212,821
4.28688,737
4.29165,922
4.2964,738
4.30117,876
4.30593,728
4.3107,973
4.31545,700
4.32022,1025
4.32498,840
4.32973,652
4.3345,889
4.33927,914
4.34403,904
4.34878,763
4.35355,767
4.35832,844
4.36307,693
4.36783,890
4.3726,645
4.37737,769
4.38212,837
4.38688,1180
4.39165,1037
4.3964,670
4.40117,877
4.40593,988
4.4107,874
4.41545,971
4.42022,1061
4.42498,839
4.42973,1631
4.4345,936
4.43927,891
4.44403,827
4.44878,1026
4.45355,875
4.45832,733
4.46307,1232
4.46783,630
4.4726,628
4.47737,794
4.48212,837
4.48688,1065
4.49165,980
4.49642,818
4.50117,941
4.50593,771
4.5107,1069
4.51545,864
4.52022,939
4.52498,914
4.52975,754
4.5345,892
4.53927,936
4.54403,937
4.54878,815
4.55355,864
4.55832,1114
4.56308,1034
4.56783,834
4.5726,858
4.57737,736
4.58212,939
4.58688,1015
4.59165,856
4.59642,1005
4.60117,1167
4.60593,908
4.6107,1239
4.61545,1089
4.62022,860
4.62498,1170
4.62975,1289
4.6345,868
4.63927,876
4.64403,998
4.6488,958
4.65355,866
4.65832,1050
4.66308,764
4.66783,901
4.6726,850
4.67737,1181
4.68213,887
4.68688,1084
4.69165,834
4.69642,1043
4.70117,764
4.70593,1028
4.7107,1094
4.71547,748
4.72022,1193
4.72498,994
4.72975,1020
4.7345,942
4.73927,1049
4.74403,880
4.7488,1109
4.75355,1034
4.75832,1121
4.76308,1144
4.76783,1004
4.7726,1002
4.77737,1096
4.78213,1020
4.78688,856
4.79165,875
4.79642,966
4.80117,866
4.80593,973
4.8107,881
4.81547,954
4.82022,926
4.82498,936
4.82975,1202
4.83452,785
4.83927,685
4.84403,818
4.8488,1131
4.85355,970
4.85832,1063
4.86308,783
4.86785,1250
4.8726,715
4.87737,989
4.88213,975
4.88688,826
4.89165,717
4.89642,1100
4.90118,864
4.90593,1228
4.9107,1131
4.91547,1210
4.92022,938
4.92498,1180
4.92975,909
4.93452,1318
4.93927,1179
4.94403,1020
4.9488,823
4.95355,1232
4.95832,1016
4.96308,892
4.96785,1050
4.9726,983
4.97737,874
4.98213,1265
4.9869,1001
4.99165,1132
4.99642,1215
5.00118,831
5.00593,763
5.0107,1356
5.01547,1020
5.02023,1034
5.02498,947
5.02975,967
5.03452,850
5.03927,1072
5.04403,801
5.0488,917
5.05357,1062
5.05832,1228
5.06308,1258
5.06785,864
5.0726,967
5.07737,1041
5.08213,990
5.0869,910
5.09165,1052
5.09642,1023
5.10118,1172
5.10593,1264
5.1107,878
5.11547,882
5.12023,1050
5.12498,1078
5.12975,1247
5.13452,1184
5.13927,1259
5.14403,1186
5.1488,964
5.15357,1082
5.15832,1263
5.16308,1237
5.16785,4208
5.17262,4676
5.17737,2266
5.18213,1600
5.1869,1210
5.19165,942
5.19642,1155
5.20118,1198
5.20595,1203
5.2107,1206
5.21547,1135
5.22023,1172
5.22498,1249
5.22975,1384
5.23452,1128
5.23928,1118
5.24403,1052
5.2488,1265
5.25357,1283
5.25832,1316
5.26308,934
5.26785,1168
5.27262,1076
5.27737,1264
5.28213,1088
5.2869,1233
5.29165,1432
5.29642,1123
5.30118,972
5.30595,1067
5.3107,1199
5.31547,1040
5.32023,1418
5.325,1086
5.32975,1126
5.33452,1419
5.33928,867
5.34403,1027
5.3488,1236
5.35357,974
5.35833,1022
5.36308,1446
5.36785,1112
5.37262,1329
5.37737,1432
5.38213,1217
5.3869,1483
5.39167,1237
5.39642,1129
5.40118,1372
5.40595,1271
5.4107,1159
5.41547,1209
5.42023,1220
5.425,894
5.42975,1040
5.43452,1443
5.43928,1228
5.44403,949
5.4488,1204
5.45357,1173
5.45833,1105
5.46308,1432
5.46785,1461
5.47262,1277
5.47737,1464
5.48213,1210
5.4869,1050
5.49167,1294
5.49642,1484
5.50118,1390
5.50595,1304
5.51072,1241
5.51547,1002
5.52023,1142
5.525,1336
5.52975,1539
5.53452,1320
5.53928,1048
5.54405,1008
5.5488,1239
5.55357,1274
5.55833,1384
5.56308,1242
5.56785,1236
5.57262,884
5.57738,1587
5.58213,1352
5.5869,1149
5.59167,1436
5.59642,1143
5.60118,1051
5.60595,1621
5.61072,1049
5.61547,1329
5.62023,1602
5.625,1317
5.62975,1077
5.63452,1283
5.63928,1156
5.64405,1464
5.6488,1323
5.65357,1339
5.65833,1332
5.66308,1458
5.66785,1523
5.67262,1219
5.67738,1356
5.68213,1383
5.6869,1447
5.69167,1366
5.69643,1327
5.70118,1378
5.70595,1628
5.71072,1263
5.71547,1413
5.72023,1406
5.725,1370
5.72977,1144
5.73452,1384
5.73928,1515
5.74405,1323
5.7488,1433
5.75357,1639
5.75833,1337
5.7631,1936
5.76785,1480
5.77262,1407
5.77738,1118
5.78213,1438
5.7869,1758
5.79167,1520
5.79643,1557
5.80118,1260
5.80595,1820
5.81072,3194
5.81547,3781
5.82023,2345
5.825,1278
5.82977,1520
5.83452,1570
5.83928,1449
5.84405,1407
5.84882,1611
5.85357,1617
5.85833,1352
5.8631,1470
5.86785,1243
5.87262,1339
5.87738,1498
5.88215,1714
5.8869,1529
5.89167,1484
5.89643,1358
5.90118,1433
5.90595,1451
5.91072,1604
5.91548,1470
5.92023,1487
5.925,1338
5.92977,1296
5.93452,1419
5.93928,1636
5.94405,1416
5.94882,1506
5.95357,1613
5.95833,1833
5.9631,1354
5.96785,1341
5.97262,1742
5.97738,1946
5.98215,1739
5.9869,1705
5.99167,1523
5.99643,1954
6.00118,1593
6.00595,1442
6.01072,1460
6.01548,1385
6.02023,1634
6.025,1512
6.02977,1639
6.03453,1505
6.03928,1368
6.04405,1634
6.04882,1553
6.05357,1728
6.05833,1973
6.0631,1611
6.06787,1667
6.07262,1346
6.07738,1591
6.08215,1521
6.0869,1782
6.09167,1614
6.09643,1433
6.1012,1909
6.10595,1329
6.11072,1582
6.11548,1785
6.12023,1641
6.125,1582
6.12977,1699
6.13453,1602
6.13928,1730
6.14405,1724
6.14882,2100
6.15357,1820
6.15833,1547
6.1631,1814
6.16787,1561
6.17262,1790
6.17738,1691
6.18215,1895
6.18692,1475
6.19167,1512
6.19643,1876
6.2012,2118
6.20595,1754
6.21072,2015
6.21548,1374
6.22025,2321
6.225,1931
6.22977,2054
6.23453,2145
6.23928,1880
6.24405,1970
6.24882,2023
6.25358,1978
6.25833,1739
6.2631,1999
6.26787,2150
6.27262,1621
6.27738,2042
6.28215,1640
6.28692,1996
6.29167,2150
6.29643,1833
6.3012,1897
6.30595,1725
6.31072,2136
6.31548,2187
6.32025,1995
6.325,2276
6.32977,2134
6.33453,2175
6.33928,2040
6.34405,2011
6.34882,2306
6.35358,2137
6.35833,2295
6.3631,2143
6.36787,1594
6.37263,1934
6.37738,2381
6.38215,2048
6.38692,2454
6.39167,2849
6.39643,2192
6.4012,2518
6.40597,1951
6.41072,2558
6.41548,2256
6.42025,2009
6.425,1848
6.42977,1990
6.43453,2157
6.4393,2304
6.44405,2291
6.44882,2316
6.45358,2560
6.45833,2413
6.4631,2598
6.46787,2487
6.47263,2553
6.47738,2265
6.48215,2359
6.48692,4152
6.49167,45028
6.49643,370981
6.5012,2240404
6.50597,6323431
6.51072,5755288
6.51548,2063733
6.52025,672877
6.52502,341761
6.52977,215550
6.53453,155780
6.5393,117797
6.54405,94359
6.54882,73868
6.55358,62846
6.55835,53949
6.5631,45389
6.56787,40044
6.57263,36022
6.57738,32930
6.58215,29744
6.58692,26318
6.59168,24925
6.59643,22383
6.6012,21237
6.60597,19501
6.61072,18623
6.61548,16604
6.62025,15042
6.62502,15017
6.62977,14255
6.63453,14687
6.6393,12251
6.64405,11479
6.64882,12625
6.65358,9799
6.65835,10644
6.6631,10394
6.66787,8970
6.67263,8581
6.67738,8345
6.68215,8185
6.68692,8797
6.69168,7371
6.69643,7916
6.7012,7722
6.70597,7296
6.71073,7646
6.71548,5965
6.72025,6431
6.72502,6010
6.72977,5926
6.73453,6455
6.7393,6007
6.74407,7025
6.74882,6877
6.75358,5984
6.75835,5885
6.7631,5896
6.76787,6304
6.77263,6760
6.7774,6169
6.78215,6287
6.78692,5012
6.79168,5526
6.79643,6583
6.8012,6028
6.80597,5648
6.81073,5401
6.81548,6174
6.82025,5413
6.82502,5113
6.82977,4527
6.83453,5672
6.8393,5945
6.84407,4864
6.84882,5903
6.85358,4843
6.85835,6412
6.8631,5553
6.86787,5535
6.87263,5185
6.8774,6208
6.88215,5307
6.88692,5089
6.89168,5376
6.89645,6088
6.9012,5790
6.90597,4733
6.91073,4907
6.91548,5281
6.92025,5213
6.92502,5324
6.92978,6833
6.93453,11453
6.9393,11855
6.94407,8217
6.94882,6033
6.95358,5020
6.95835,5368
6.96312,5561
6.96787,4926
6.97263,5249
6.9774,5712
6.98215,4544
6.98692,5190
6.99168,4570
6.99645,4916
7.0012,5164
7.00597,5365
7.01073,5325
7.01548,5435
7.02025,5114
7.02502,5830
7.02978,5296
7.03453,4837
7.0393,4625
7.04407,4638
7.04883,5695
7.05358,5560
7.05835,5953
7.06312,5172
7.06787,4251
7.07263,5110
7.0774,4818
7.08217,5222
7.08692,5693
7.09168,5289
7.09645,5558
7.1012,6008
7.10597,5933
7.11073,5095
7.1155,4734
7.12025,5201
7.12502,5675
7.12978,4650
7.13453,4696
7.1393,5924
7.14407,5028
7.14883,5443
7.15358,5453
7.15835,5478
7.16312,5000
7.16787,4988
7.17263,5489
7.1774,4912
7.18217,5411
7.18692,5472
7.19168,5247
7.19645,4964
7.2012,5602
7.20597,5300
7.21073,5327
7.2155,5212
7.22025,5912
7.22502,4694
7.22978,5913
7.23455,4796
7.2393,5136
7.24407,5090
7.24883,4870
7.25358,5329
7.25835,4885
7.26312,6056
7.26788,5379
7.27263,4734
7.2774,5481
7.28217,6051
7.28692,5573
7.29168,5056
7.29645,5585
7.30122,5480
7.30597,5212
7.31073,5260
7.3155,6025
7.32025,5508
7.32502,4782
7.32978,5586
7.33455,5176
7.3393,5501
7.34407,4637
7.34883,5684
7.35358,5185
7.35835,5638
7.36312,5609
7.36788,4580
7.37263,5427
7.3774,5696
7.38217,4703
7.38693,6724
7.39168,17594
7.39645,62682
7.40122,182011
7.40597,457000
7.41073,1051377
7.4155,1991227
7.42027,2623179
7.42502,1802313
7.42978,814228
7.43455,451590
7.4393,296290
7.44407,219609
7.44883,171810
7.4536,136863
7.45835,116496
7.46312,97205
7.46788,83588
7.47263,75266
7.4774,66835
7.48217,60824
7.48693,52576
7.49168,49444
7.49645,43190
7.50122,40513
7.50597,36961
7.51073,34270
7.5155,32770
7.52027,27403
7.52502,26166
7.52978,24951
7.53455,24637
7.5393,21761
7.54407,20322
7.54883,21907
7.5536,19780
7.55835,18065
7.56312,19857
7.56788,16550
7.57265,16906
7.5774,15143
7.58217,15457
7.58693,13739
7.59168,13827
7.59645,12817
7.60122,11808
7.60598,13926
7.61073,11801
7.6155,13225
7.62027,12141
7.62502,12258
7.62978,12975
7.63455,10968
7.63932,10222
7.64407,11274
7.64883,10544
7.6536,10784
7.65835,9907
7.66312,10005
7.66788,9871
7.67265,10456
7.6774,9744
7.68217,9453
7.68693,8398
7.69168,8363
7.69645,9352
7.70122,9188
7.70598,7146
7.71073,8166
7.7155,8618
7.72027,8361
7.72503,8245
7.72978,7889
7.73455,7733
7.73932,8676
7.74407,7696
7.74883,8362
7.7536,7277
7.75837,7433
7.76312,7987
7.76788,7947
7.77265,6205
7.7774,7791
7.78217,10580
7.78693,14368
7.7917,21056
7.79645,21562
7.80122,17722
7.80598,12834
7.81073,9904
7.8155,9135
7.82027,8540
7.82503,7100
7.82978,7693
7.83455,7849
7.83932,7582
7.84407,7155
7.84883,7447
7.8536,7229
7.85837,7071
7.86312,7077
7.86788,6412
7.87265,7224
7.8774,9831
7.88217,12498
7.88693,17908
7.8917,19064
7.89645,17195
7.90122,12900
7.90598,10007
7.91075,7121
7.9155,7745
7.92027,7701
7.92503,6971
7.92978,6841
7.93455,6647
7.93932,6787
7.94408,6909
7.94883,7803
7.9536,6321
7.95837,5821
7.96312,7063
7.96788,5938
7.97265,6222
7.97742,6319
7.98217,5965
7.98693,6583
7.9917,6622
7.99645,6467
8.00122,6954
8.00598,5582
8.01075,5576
8.0155,6991
8.02027,6209
8.02503,6973
8.02978,6725
8.03455,7046
8.03932,6106
8.04408,6245
8.04883,6128
8.0536,6222
8.05837,6428
8.06312,5476
8.06788,5948
8.07265,6639
8.07742,7479
8.08217,6104
8.08693,6190
8.0917,6365
8.09647,6138
8.10122,6577
8.10598,6383
8.11075,6090
8.1155,6321
8.12027,6773
8.12503,6367
8.1298,5844
8.13455,6184
8.13932,6899
8.14408,7780
8.14883,5554
8.1536,6486
8.15837,6739
8.16313,6234
8.16788,7179
8.17265,5720
8.17742,6087
8.18217,5984
8.18693,5679
8.1917,5759
8.19647,5962
8.20122,5252
8.20598,5448
8.21075,6634
8.2155,5537
8.22027,6311
8.22503,6672
8.2298,7639
8.23455,5826
8.23932,6596
8.24408,5429
8.24885,5095
8.2536,5849
8.25837,6375
8.26313,6473
8.26788,6217
8.27265,5948
8.27742,6029
8.28218,6505
8.28693,6077
8.2917,6794
8.29647,6653
8.30122,6760
8.30598,4998
8.31075,5865
8.31552,6312
8.32027,6237
8.32503,5566
8.3298,6054
8.33455,5301
8.33932,5962
8.34408,6383
8.34885,5863
8.3536,5199
8.35837,6569
8.36313,6819
8.36788,6576
8.37265,5976
8.37742,6909
8.38218,6203
8.38693,5404
8.3917,5695
8.39647,6741
8.40122,5746
8.40598,5937
8.41075,6575
8.41552,6525
8.42027,6520
8.42503,5882
8.4298,6264
8.43457,6275
8.43932,5663
8.44408,6226
8.44885,6262
8.4536,5605
8.45837,6695
8.46313,5810
8.4679,4514
8.47265,6185
8.47742,5859
8.48218,5617
8.48693,5764
8.4917,5872
8.49647,6129
8.50123,6747
8.50598,5097
8.51075,6066
8.51552,5963
8.52027,5446
8.52503,5542
8.5298,5871
8.53457,5989
8.53932,6496
8.54408,5788
8.54885,5026
8.5536,5480
8.55837,5878
8.56313,5928
8.5679,5751
8.57265,6576
8.57742,6076
8.58218,5794
8.58695,6005
8.5917,6250
8.59647,5874
8.60123,5946
8.60598,5854
8.61075,6279
8.61552,4580
8.62028,5212
8.62503,6635
8.6298,6453
8.63457,6252
8.63932,6392
8.64408,5997
8.64885,6130
8.65362,6767
8.65837,6328
8.66313,6125
8.6679,5846
8.67265,5902
8.67742,5722
8.68218,6104
8.68695,6021
8.6917,5541
8.69647,5467
8.70123,5260
8.70598,6102
8.71075,6342
8.71552,6549
8.72028,5912
8.72503,6389
8.7298,5439
8.73457,6055
8.73932,5941
8.74408,5823
8.74885,5159
8.75362,5810
8.75837,5236
8.76313,5470
8.7679,6379
8.77267,5836
8.77742,5736
8.78218,5537
8.78695,5895
8.7917,5777
8.79647,5384
8.80123,5963
8.806,6297
8.81075,5235
8.81552,6111
8.82028,5814
8.82503,6058
8.8298,6180
8.83457,5558
8.83933,6315
8.84408,4863
8.84885,5433
8.85362,6340
8.85837,5584
8.86313,5290
8.8679,6710
8.87267,6055
8.87742,6730
8.88218,6170
8.88695,5070
8.8917,6178
8.89647,6203
8.90123,5681
8.906,6172
8.91075,5427
8.91552,5197
8.92028,5696
8.92505,5530
8.9298,5812
8.93457,6252
8.93933,5951
8.94408,5342
8.94885,6173
8.95362,5663
8.95838,5358
8.96313,6119
8.9679,6170
8.97267,6334
8.97742,5845
8.98218,5666
8.98695,6469
8.99172,5548
8.99647,6993
9.00123,6318
9.006,5702
9.01075,5083
9.01552,5627
9.02028,6321
9.02505,5105
9.0298,5395
9.03457,5915
9.03933,6175
9.04408,5056
9.04885,5305
9.05362,6135
9.05838,6250
9.06313,5549
9.0679,6002
9.07267,5230
9.07742,5365
9.08218,6094
9.08695,6518
9.09172,6265
9.09647,5183
9.10123,5151
9.106,6822
9.11077,6306
9.11552,5407
9.12028,5712
9.12505,6184
9.1298,4800
9.13457,5095
9.13933,5214
9.1441,5668
9.14885,6583
9.15362,5358
9.15838,5478
9.16313,6072
9.1679,5801
9.17267,5736
9.17743,5622
9.18218,5919
9.18695,5502
9.19172,6264
9.19647,5846
9.20123,4574
9.206,6264
9.21077,5174
9.21552,6118
9.22028,5799
9.22505,6139
9.2298,4754
9.23457,5512
9.23933,5857
9.2441,6633
9.24885,5490
9.25362,5768
9.25838,5380
9.26313,5923
9.2679,6186
9.27267,6760
9.27743,6582
9.28218,5806
9.28695,6145
9.29172,5514
9.29648,5402
9.30123,5728
9.306,6220
9.31077,5488
9.31552,5556
9.32028,5644
9.32505,5536
9.32982,5805
9.33457,5898
9.33933,5310
9.3441,5489
9.34885,5514
9.35362,5863
9.35838,5436
9.36315,5725
9.3679,5136
9.37267,5516
9.37743,5882
9.38218,5937
9.38695,5961
9.39172,5448
9.39648,6340
9.40123,5279
9.406,6027
9.41077,7094
9.41552,5431
9.42028,5377
9.42505,5923
9.42982,5726
9.43457,5434
9.43933,6199
9.4441,6173
9.44887,6399
9.45362,5724
9.45838,5591
9.46315,5726
9.4679,5845
9.47267,5796
9.47743,5413
9.4822,5567
9.48695,5664
9.49172,4536
9.49648,6036
9.50123,5460
9.506,6240
9.51077,6229
9.51553,6339
9.52028,5957
9.52505,5759
9.52982,6420
9.53457,5730
9.53933,5662
9.5441,4933
9.54887,5768
9.55362,5669
9.55838,5530
9.56315,5867
9.5679,5410
9.57267,5732
9.57743,5550
9.5822,5279
9.58695,6258
9.59172,5293
9.59648,5429
9.60123,5497
9.606,5848
9.61077,6888
9.61553,6700
9.62028,6077
9.62505,5624
9.62982,5704
9.63458,4548
9.63933,5093
9.6441,5614
9.64887,5725
9.65362,6769
9.65838,4564
9.66315,5881
9.66792,5904
9.67267,5701
9.67743,5820
9.6822,6253
9.68695,5926
9.69172,6338
9.69648,5583
9.70125,5464
9.706,6311
9.71077,5805
9.71553,5890
9.72028,5885
9.72505,5185
9.72982,6314
9.73458,5441
9.73933,5338
9.7441,5401
9.74887,6431
9.75362,5783
9.75838,5656
9.76315,5364
9.76792,5803
9.77267,5098
9.77743,5423
9.7822,5482
9.78697,5543
9.79172,5718
9.79648,5721
9.80125,5351
9.806,5216
9.81077,5266
9.81553,5381
9.8203,5635
9.82505,6622
9.82982,5316
9.83458,5831
9.83933,5558
9.8441,5957
9.84887,5568
9.85363,5589
9.85838,5681
9.86315,5648
9.86792,5952
9.87267,5972
9.87743,5912
9.8822,6153
9.88697,5456
9.89172,6223
9.89648,5498
9.90125,5653
9.906,5871
9.91077,6041
9.91553,5546
9.9203,6652
9.92505,5883
9.92982,5473
9.93458,5753
9.93933,4952
9.9441,5355
9.94887,5244
9.95363,5304
9.95838,5845
9.96315,6364
9.96792,6345
9.97268,6447
9.97743,6044
9.9822,5281
9.98697,5019
9.99172,5838
9.99648,5247
10.0013,5618
10.006,5768
10.0108,4711
10.0155,5340
10.0203,5728
10.0251,6088
10.0298,5318
10.0346,5181
10.0394,5863
10.0441,5222
10.0489,5777
10.0536,5357
10.0584,5333
10.0632,5402
10.0679,5347
10.0727,6128
10.0774,5973
10.0822,4838
10.087,5842
10.0917,5192
10.0965,5967
10.1013,5570
10.106,5365
10.1108,5208
10.1155,4881
10.1203,4899
10.1251,5815
10.1298,5575
10.1346,5423
10.1394,5856
10.1441,5323
10.1489,5287
10.1536,5849
10.1584,5154
10.1632,6023
10.1679,5169
10.1727,6127
10.1774,8269
10.1822,10655
10.187,20364
10.1917,33116
10.1965,56940
10.2013,86102
10.206,129719
10.2108,184425
10.2155,263311
10.2203,377181
10.2251,523117
10.2298,703021
10.2346,928443
10.2394,1122124
10.2441,1254709
10.2489,1239841
10.2536,1047202
10.2584,814172
10.2632,620521
10.2679,483800
10.2727,395580
10.2774,330248
10.2822,276717
10.287,243832
10.2917,213779
10.2965,191313
10.3013,170193
10.306,159547
10.3108,141449
10.3155,130390
10.3203,121011
10.3251,115212
10.3298,102490
10.3346,95261
10.3394,90449
10.3441,86777
10.3489,78363
10.3536,74597
10.3584,67041
10.3632,61746
10.3679,59724
10.3727,54624
10.3775,52576
10.3822,50479
10.387,46041
10.3917,43662
10.3965,41655
10.4013,40834
10.406,40081
10.4108,37809
10.4155,33786
10.4203,32339
10.4251,33877
10.4298,30945
10.4346,29343
10.4394,28689
10.4441,25076
10.4489,26436
10.4536,24599
10.4584,23254
10.4632,23497
10.4679,21882
10.4727,20511
10.4775,18796
10.4822,20736
10.487,19030
10.4917,16601
10.4965,18051
10.5013,17916
10.506,17001
10.5108,16830
10.5155,16234
10.5203,15035
10.5251,14479
10.5298,14042
10.5346,14060
10.5394,13777
10.5441,12471
10.5489,13471
10.5536,12788
10.5584,11618
10.5632,12795
10.5679,11640
10.5727,12327
10.5775,12169
10.5822,11652
10.587,12848
10.5917,11569
10.5965,12204
10.6013,12399
10.606,10017
10.6108,10830
10.6155,10111
10.6203,9859
10.6251,10545
10.6298,10194
10.6346,10463
10.6394,9562
10.6441,9078
10.6489,8395
10.6536,9507
10.6584,8632
10.6632,8245
10.6679,8708
10.6727,8134
10.6775,8361
10.6822,8058
10.687,8430
10.6917,8575
10.6965,7697
10.7013,8336
10.706,8593
10.7108,7509
10.7156,8305
10.7203,7719
10.7251,8332
10.7298,7738
10.7346,7024
10.7394,8040
10.7441,7162
10.7489,7123
10.7536,7688
10.7584,7980
10.7632,7904
10.7679,7526
10.7727,7572
10.7775,6829
10.7822,6878
10.787,7195
10.7917,7382
10.7965,6809
10.8013,6560
10.806,7231
10.8108,7518
10.8156,7184
10.8203,8464
10.8251,7304
10.8298,7691
10.8346,7518
10.8394,7680
10.8441,6908
10.8489,6959
10.8536,6674
10.8584,7025
10.8632,6633
10.8679,6755
10.8727,7212
10.8775,6476
10.8822,6462
10.887,7810
10.8917,7060
10.8965,6436
10.9013,6643
10.906,7228
10.9108,6054
10.9156,6436
10.9203,6542
10.9251,6659
10.9298,6028
10.9346,6565
10.9394,7386
10.9441,6421
10.9489,6323
10.9536,6299
10.9584,6210
10.9632,6061
10.9679,6633
10.9727,6085
10.9775,7000
10.9822,7166
10.987,6787
10.9917,6067
10.9965,5981
11.0013,7078
11.006,5946
11.0108,5711
11.0156,6557
11.0203,7061
11.0251,5736
11.0298,6568
11.0346,6914
11.0394,6569
11.0441,7148
11.0489,7092
11.0537,6638
11.0584,6227
11.0632,5082
11.0679,7064
11.0727,5697
11.0775,7179
11.0822,5899
11.087,7066
11.0917,5963
11.0965,5974
11.1013,6060
11.106,6810
11.1108,6454
11.1156,6001
11.1203,6698
11.1251,6306
11.1298,5922
11.1346,6257
11.1394,6390
11.1441,5817
11.1489,5804
11.1537,6216
11.1584,6479
11.1632,6940
11.1679,6669
11.1727,5586
11.1775,6940
11.1822,6139
11.187,5877
11.1917,5388
11.1965,5993
11.2013,6080
11.206,6302
11.2108,5807
11.2156,5820
11.2203,6669
11.2251,5799
11.2298,6103
11.2346,5549
11.2394,5788
11.2441,6416
11.2489,5330
11.2537,6654
11.2584,6542
11.2632,5834
11.2679,5896
11.2727,6574
11.2775,6213
11.2822,5485
11.287,6043
11.2917,5162
11.2965,5401
11.3013,6394
11.306,6521
11.3108,5815
11.3156,5896
11.3203,7044
11.3251,6391
11.3298,6041
11.3346,5631
11.3394,6205
11.3441,6132
11.3489,6513
11.3537,6028
11.3584,5456
11.3632,6573
11.3679,5731
11.3727,5953
11.3775,6578
11.3822,5710
11.387,6109
11.3918,5643
11.3965,5886
11.4013,5985
11.406,5647
11.4108,5409
11.4156,5870
11.4203,6216
11.4251,5600
11.4298,5657
11.4346,6340
11.4394,5217
11.4441,6172
11.4489,6671
11.4537,5325
11.4584,5801
11.4632,7191
11.4679,6098
11.4727,6057
11.4775,6692
11.4822,5685
11.487,6134
11.4918,6012
11.4965,5096
11.5013,6588
11.506,6060
11.5108,5108
11.5156,6139
11.5203,6714
11.5251,6551
11.5298,5594
11.5346,6302
11.5394,6081
11.5441,5970
11.5489,5395
11.5537,6445
11.5584,5625
11.5632,5083
11.5679,5665
11.5727,5433
11.5775,5696
11.5822,6238
11.587,6022
11.5918,6569
11.5965,6815
11.6013,5405
11.606,5653
11.6108,5690
11.6156,5968
11.6203,5843
11.6251,6040
11.6298,5920
11.6346,5921
11.6394,5444
11.6441,6284
11.6489,5565
11.6537,6088
11.6584,5422
11.6632,5663
11.6679,5828
11.6727,6171
11.6775,6286
11.6822,5779
11.687,6019
11.6918,5260
11.6965,5732
11.7013,5353
11.706,5728
11.7108,5730
11.7156,5336
11.7203,6175
11.7251,5793
11.7299,5728
11.7346,6368
11.7394,5813
11.7441,5538
11.7489,6076
11.7537,6590
11.7584,6659
11.7632,5476
11.7679,6183
11.7727,6478
11.7775,5644
11.7822,5835
11.787,6212
11.7918,5376
11.7965,5469
11.8013,6488
11.806,5271
11.8108,5729
11.8156,5563
11.8203,5654
11.8251,5526
11.8299,5698
11.8346,5974
11.8394,6798
11.8441,5589
11.8489,5570
11.8537,5449
11.8584,5413
11.8632,4814
11.8679,5282
11.8727,5253
11.8775,5284
11.8822,4855
11.887,5624
11.8918,5839
11.8965,5474
11.9013,6661
11.906,6220
11.9108,5902
11.9156,6206
11.9203,5005
11.9251,5523
11.9299,6497
11.9346,5796
11.9394,6038
11.9441,5494
11.9489,6012
11.9537,5620
11.9584,5694
11.9632,5643
11.9679,5242
11.9727,7074
11.9775,5580
11.9822,5987
11.987,5826
11.9918,5503
11.9965,5353
12.0013,5960
12.006,5934
12.0108,5375
12.0156,5081
12.0203,4841
12.0251,5509
12.0299,5809
12.0346,5560
12.0394,5599
12.0441,5888
12.0489,4640
12.0537,5926
12.0584,6359
12.0632,5992
12.068,5784
12.0727,5698
12.0775,5725
12.0822,4527
12.087,5475
12.0918,5982
12.0965,5731
12.1013,5151
12.106,4814
12.1108,6293
12.1156,5424
12.1203,5450
12.1251,5382
12.1299,5994
12.1346,5618
12.1394,5779
12.1441,5160
12.1489,4908
12.1537,5779
12.1584,5860
12.1632,5913
12.168,6080
12.1727,4901
12.1775,5753
12.1822,5235
12.187,5833
12.1918,5856
12.1965,5314
12.2013,5471
12.206,5500
12.2108,5173
12.2156,5597
12.2203,6337
12.2251,5445
12.2299,5992
12.2346,5877
12.2394,5569
12.2441,5954
12.2489,5960
12.2537,5419
12.2584,5802
12.2632,5976
12.268,4759
12.2727,5415
12.2775,5675
12.2822,5710
12.287,5530
12.2918,5832
12.2965,5561
12.3013,5791
12.306,5352
12.3108,5145
12.3156,6082
12.3203,5484
12.3251,6024
12.3299,5479
12.3346,5937
12.3394,5113
12.3441,5789
12.3489,5404
12.3537,5383
12.3584,6111
12.3632,6075
12.368,5942
12.3727,6118
12.3775,5314
12.3822,5004
12.387,5846
12.3918,5842
12.3965,5763
12.4013,5199
12.4061,5515
12.4108,5297
12.4156,6803
12.4203,5487
12.4251,6150
12.4299,5904
12.4346,6048
12.4394,5622
12.4441,5466
12.4489,5945
12.4537,5548
12.4584,5422
12.4632,5396
12.468,5608
12.4727,5791
12.4775,6025
12.4822,6082
12.487,5764
12.4918,5838
12.4965,5273
12.5013,6069
12.5061,5224
12.5108,5653
12.5156,5625
12.5203,6289
12.5251,5783
12.5299,5892
12.5346,5876
12.5394,5208
12.5441,6088
12.5489,6431
12.5537,5642
12.5584,5231
12.5632,5475
12.568,6028
12.5727,5046
12.5775,4974
12.5822,5596
12.587,6341
12.5918,5613
12.5965,5612
12.6013,5838
12.6061,5887
12.6108,6073
12.6156,5446
12.6203,6249
12.6251,6031
12.6299,6051
12.6346,5630
12.6394,5657
12.6441,5786
12.6489,6003
12.6537,6413
12.6584,5366
12.6632,5592
12.668,6222
12.6727,5359
12.6775,5908
12.6822,5030
12.687,5092
12.6918,5251
12.6965,5389
12.7013,5724
12.7061,5229
12.7108,5752
12.7156,4520
12.7203,5839
12.7251,5546
12.7299,5339
12.7346,5153
12.7394,5970
12.7442,5537
12.7489,5733
12.7537,5213
12.7584,5926
12.7632,6034
12.768,5885
12.7727,5322
12.7775,5684
12.7822,5350
12.787,5476
12.7918,5680
12.7965,5939
12.8013,5933
12.8061,5678
12.8108,5105
12.8156,6106
12.8203,6160
12.8251,5364
12.8299,5810
12.8346,6008
12.8394,5872
12.8442,5697
12.8489,5971
12.8537,5850
12.8584,6413
12.8632,5597
12.868,5332
12.8727,4960
12.8775,6061
12.8822,6329
12.887,5376
12.8918,5345
12.8965,5442
12.9013,6224
12.9061,4800
12.9108,5423
12.9156,5675
12.9203,5490
12.9251,5523
12.9299,5042
12.9346,5059
12.9394,5383
12.9442,6035
12.9489,5940
12.9537,5145
12.9584,5480
12.9632,6367
12.968,5130
12.9727,5640
12.9775,5895
12.9822,5530
12.987,5242
12.9918,5248
12.9965,6157
13.0013,5710
13.0061,6468
13.0108,5621
13.0156,6085
13.0203,5197
13.0251,5440
13.0299,5453
13.0346,5639
13.0394,5156
13.0442,5502
13.0489,5538
13.0537,5319
13.0584,5557
13.0632,5546
13.068,5153
13.0727,5534
13.0775,5849
13.0823,5251
13.087,5628
13.0918,5039
13.0965,5988
13.1013,5977
13.1061,4911
13.1108,4547
13.1156,5403
13.1203,5204
13.1251,5102
13.1299,5956
13.1346,5537
13.1394,5827
13.1442,5598
13.1489,5887
13.1537,5602
13.1584,4471
13.1632,5435
13.168,5686
13.1727,5427
13.1775,5147
13.1823,4782
13.187,5919
13.1918,5501
13.1965,5582
13.2013,5777
13.2061,5745
13.2108,5221
13.2156,5384
13.2203,5753
13.2251,5122
13.2299,5239
13.2346,5026
13.2394,5210
13.2442,5152
13.2489,5856
13.2537,5688
13.2584,5777
13.2632,5860
13.268,5817
13.2727,4870
13.2775,5409
13.2823,5327
13.287,5725
13.2918,5798
13.2965,5310
13.3013,4762
13.3061,5746
13.3108,5137
13.3156,5729
13.3203,5561
13.3251,5585
13.3299,5254
13.3346,5653
13.3394,5288
13.3442,5612
13.3489,5798
13.3537,5332
13.3584,5417
13.3632,5366
13.368,5475
13.3727,5383
13.3775,5273
13.3823,5132
13.387,5686
13.3918,5282
13.3965,5367
13.4013,5651
13.4061,5325
13.4108,5293
13.4156,5519
13.4204,5830
13.4251,4900
13.4299,5473
13.4346,5582
13.4394,5783
13.4442,5931
13.4489,5832
13.4537,4996
13.4584,5294
13.4632,5972
13.468,5150
13.4727,5551
13.4775,4922
13.4823,5547
13.487,4810
13.4918,6182
13.4965,6159
13.5013,5455
13.5061,5718
13.5108,5075
13.5156,6004
13.5204,5369
13.5251,5218
13.5299,5159
13.5346,5270
13.5394,4789
13.5442,5032
13.5489,5161
13.5537,4677
13.5584,5593
13.5632,5717
13.568,4867
13.5727,5453
13.5775,5427
13.5823,5273
13.587,5329
13.5918,5211
13.5965,5717
13.6013,4934
13.6061,5362
13.6108,5430
13.6156,5264
13.6204,5589
13.6251,5842
13.6299,5940
13.6346,5019
13.6394,5281
13.6442,5214
13.6489,5742
13.6537,4922
13.6584,6270
13.6632,5336
13.668,5815
13.6727,5530
13.6775,5840
13.6823,5990
13.687,5872
13.6918,5719
13.6965,5370
13.7013,5225
13.7061,5525
13.7108,5634
13.7156,5334
13.7204,5526
13.7251,5336
13.7299,5654
13.7346,5833
13.7394,6138
13.7442,6067
13.7489,5677
13.7537,5509
13.7585,5964
13.7632,5662
13.768,5551
13.7727,5459
13.7775,5303
13.7823,5761
13.787,5400
13.7918,4456
13.7965,5291
13.8013,5357
13.8061,4866
13.8108,5914
13.8156,5814
13.8204,5357
13.8251,5426
13.8299,6128
13.8346,6219
13.8394,4978
13.8442,5307
13.8489,4930
13.8537,5934
13.8585,5522
13.8632,6009
13.868,5071
13.8727,6330
13.8775,5572
13.8823,4739
13.887,5450
13.8918,5208
13.8965,5975
13.9013,5520
13.9061,5110
13.9108,5251
13.9156,5445
13.9204,4542
13.9251,6060
13.9299,5022
13.9346,4969
13.9394,4816
13.9442,5518
13.9489,5839
13.9537,5784
13.9585,4931
13.9632,5354
13.968,5806
13.9727,5549
13.9775,5254
13.9823,5117
13.987,5731
13.9918,5583
13.9965,5420
14.0013,5630
14.0061,5567
14.0108,5426
14.0156,6575
14.0204,5181
14.0251,4896
14.0299,5028
14.0346,6106
14.0394,5207
14.0442,6009
14.0489,5094
14.0537,4878
14.0585,5569
14.0632,4988
14.068,5358
14.0727,5257
14.0775,5371
14.0823,6073
14.087,5224
14.0918,5699
14.0966,6102
14.1013,5390
14.1061,5120
14.1108,5121
14.1156,5535
14.1204,5075
14.1251,5301
14.1299,5511
14.1346,6185
14.1394,5685
14.1442,5016
14.1489,5801
14.1537,5965
14.1585,5642
14.1632,5551
14.168,5043
14.1727,5214
14.1775,5821
14.1823,5248
14.187,4875
14.1918,5575
14.1966,5056
14.2013,5300
14.2061,5098
14.2108,5023
14.2156,6215
14.2204,6189
14.2251,5234
14.2299,5165
14.2346,6563
14.2394,4910
14.2442,5053
14.2489,5718
14.2537,5895
14.2585,5782
14.2632,5437
14.268,5718
14.2727,4703
14.2775,5264
14.2823,5934
14.287,5288
14.2918,5523
14.2966,5098
14.3013,4969
14.3061,5213
14.3108,5295
14.3156,5043
14.3204,5123
14.3251,5838
14.3299,5182
14.3346,5833
14.3394,5099
14.3442,5237
14.3489,5729
14.3537,5555
14.3585,5190
14.3632,5682
14.368,5913
14.3727,5425
14.3775,4921
14.3823,5428
14.387,5814
14.3918,5239
14.3966,5734
14.4013,5078
14.4061,5423
14.4108,5539
14.4156,5969
14.4204,5576
14.4251,5519
14.4299,6213
14.4347,4936
14.4394,6226
14.4442,5667
14.4489,5145
14.4537,5216
14.4585,6073
14.4632,6185
14.468,5792
14.4727,6051
14.4775,5539
14.4823,5284
14.487,5439
14.4918,5963
14.4966,5098
14.5013,5645
14.5061,5753
14.5108,5629
14.5156,6080
14.5204,5284
14.5251,5514
14.5299,5332
14.5347,6052
14.5394,5642
14.5442,5192
14.5489,5527
14.5537,5172
14.5585,6233
14.5632,6201
14.568,5037
14.5727,4893
14.5775,5886
14.5823,5848
14.587,5280
14.5918,5314
14.5966,5278
14.6013,5541
14.6061,5360
14.6108,6127
14.6156,4711
14.6204,5043
14.6251,5045
14.6299,5213
14.6347,5343
14.6394,5923
14.6442,5893
14.6489,4841
14.6537,5101
14.6585,4999
14.6632,5798
