D:\MassHunter\GCMS\1\data\Victoria Marland\22FEB\220223032.D 24 Feb 22  12:45 am
Start of data points
3.0916,764
3.09637,566
3.10113,738
3.10588,761
3.11065,957
3.11542,824
3.12017,728
3.12493,751
3.1297,701
3.13447,710
3.13922,746
3.14398,1019
3.14875,600
3.1535,790
3.15827,743
3.16303,629
3.1678,499
3.17255,984
3.17732,692
3.18208,834
3.18683,823
3.1916,633
3.19637,652
3.20113,1101
3.20588,826
3.21065,962
3.21542,550
3.22017,1004
3.22493,605
3.2297,536
3.23447,569
3.23922,997
3.24398,1158
3.24875,621
3.25352,761
3.25827,697
3.26303,904
3.2678,1081
3.27255,941
3.27732,664
3.28208,781
3.28685,1037
3.2916,605
3.29637,930
3.30113,986
3.30588,616
3.31065,663
3.31542,859
3.32018,736
3.32493,943
3.3297,637
3.33447,750
3.33922,742
3.34398,587
3.34875,657
3.35352,730
3.35827,799
3.36303,746
3.3678,669
3.37255,1150
3.37732,593
3.38208,785
3.38685,1037
3.3916,706
3.39637,481
3.40113,770
3.40588,976
3.41065,889
3.41542,631
3.42018,655
3.42493,1005
3.4297,657
3.43447,583
3.43923,793
3.44398,691
3.44875,686
3.45352,873
3.45827,995
3.46303,822
3.4678,721
3.47257,847
3.47732,653
3.48208,861
3.48685,750
3.4916,663
3.49637,587
3.50113,777
3.5059,533
3.51065,903
3.51542,729
3.52018,926
3.52493,716
3.5297,880
3.53447,780
3.53923,613
3.54398,548
3.54875,657
3.55352,602
3.55827,666
3.56303,955
3.5678,1033
3.57257,830
3.57732,742
3.58208,891
3.58685,622
3.59162,952
3.59637,624
3.60113,566
3.6059,783
3.61065,950
3.61542,643
3.62018,691
3.62495,903
3.6297,645
3.63447,839
3.63923,617
3.64398,663
3.64875,1541
3.65352,1481
3.65828,869
3.66303,876
3.6678,674
3.67257,847
3.67732,817
3.68208,664
3.68685,593
3.69162,642
3.69637,679
3.70113,569
3.7059,819
3.71065,627
3.71542,995
3.72018,980
3.72495,684
3.7297,623
3.73447,722
3.73923,894
3.74398,672
3.74875,736
3.75352,765
3.75828,794
3.76303,638
3.7678,511
3.77257,789
3.77733,817
3.78208,682
3.78685,855
3.79162,640
3.79637,659
3.80113,671
3.8059,869
3.81067,780
3.81542,530
3.82018,696
3.82495,921
3.8297,731
3.83447,840
3.83923,858
3.844,724
3.84875,898
3.85352,889
3.85828,677
3.86303,822
3.8678,952
3.87257,921
3.87733,695
3.88208,855
3.88685,796
3.89162,688
3.89637,1013
3.90113,642
3.9059,758
3.91067,903
3.91542,827
3.92018,645
3.92495,610
3.92972,1008
3.93447,727
3.93923,648
3.944,703
3.94875,893
3.95352,1116
3.95828,821
3.96305,783
3.9678,918
3.97257,1127
3.97733,2670
3.98208,3257
3.98685,2608
3.99162,2173
3.99638,1780
4.00113,1512
4.0059,946
4.01067,997
4.01542,1299
4.02018,949
4.02495,966
4.02972,996
4.03447,1129
4.03923,691
4.044,1072
4.04875,793
4.05352,602
4.05828,861
4.06305,816
4.0678,757
4.07257,1089
4.07733,870
4.08208,812
4.08685,682
4.09162,712
4.09638,682
4.10113,816
4.1059,1003
4.11067,1083
4.11543,784
4.12018,710
4.12495,941
4.12972,823
4.13447,787
4.13923,988
4.144,1104
4.14877,1018
4.15352,755
4.15828,678
4.16305,831
4.1678,883
4.17257,711
4.17733,616
4.1821,776
4.18685,701
4.19162,687
4.19638,876
4.20113,906
4.2059,891
4.21067,646
4.21543,920
4.22018,694
4.22495,885
4.22972,703
4.23447,832
4.23923,803
4.244,717
4.24877,733
4.25352,701
4.25828,868
4.26305,749
4.26782,729
4.27257,1016
4.27733,1018
4.2821,662
4.28685,842
4.29162,949
4.29638,774
4.30115,996
4.3059,1034
4.31067,756
4.31543,676
4.32018,889
4.32495,779
4.32972,793
4.33448,832
4.33923,751
4.344,819
4.34877,911
4.35352,820
4.35828,684
4.36305,858
4.36782,927
4.37257,1247
4.37733,802
4.3821,802
4.38685,1006
4.39162,856
4.39638,783
4.40115,969
4.4059,1103
4.41067,760
4.41543,930
4.42018,807
4.42495,827
4.42972,831
4.43448,827
4.43923,771
4.444,940
4.44877,762
4.45353,784
4.45828,827
4.46305,690
4.46782,1125
4.47257,829
4.47733,769
4.4821,965
4.48687,756
4.49162,961
4.49638,969
4.50115,707
4.5059,849
4.51067,798
4.51543,837
4.5202,837
4.52495,1273
4.52972,848
4.53448,973
4.53923,1097
4.544,896
4.54877,1142
4.55353,934
4.55828,926
4.56305,964
4.56782,762
4.57257,909
4.57733,946
4.5821,1004
4.58687,911
4.59162,642
4.59638,1103
4.60115,804
4.6059,1099
4.61067,776
4.61543,717
4.6202,792
4.62495,881
4.62972,852
4.63448,1097
4.63925,1152
4.644,1222
4.64877,739
4.65353,1014
4.65828,1016
4.66305,665
4.66782,1075
4.67258,833
4.67733,829
4.6821,762
4.68687,1686
4.69162,685
4.69638,999
4.70115,1128
4.70592,1048
4.71067,829
4.71543,962
4.7202,1007
4.72495,1026
4.72972,875
4.73448,877
4.73925,994
4.744,924
4.74877,921
4.75353,804
4.75828,940
4.76305,961
4.76782,1307
4.77258,990
4.77733,820
4.7821,786
4.78687,833
4.79163,1225
4.79638,879
4.80115,824
4.80592,827
4.81067,1095
4.81543,1068
4.8202,1063
4.82497,1150
4.82972,818
4.83448,913
4.83925,1005
4.844,929
4.84877,977
4.85353,1206
4.8583,1178
4.86305,991
4.86782,816
4.87258,1210
4.87733,876
4.8821,1301
4.88687,973
4.89163,949
4.89638,1113
4.90115,1377
4.90592,1033
4.91067,806
4.91543,1125
4.9202,780
4.92497,1028
4.92972,836
4.93448,911
4.93925,929
4.944,890
4.94877,1053
4.95353,1370
4.9583,972
4.96305,1030
4.96782,735
4.97258,838
4.97735,1297
4.9821,895
4.98687,1035
4.99163,714
4.99638,1128
5.00115,1191
5.00592,1213
5.01068,1001
5.01543,880
5.0202,935
5.02497,1032
5.02972,1164
5.03448,866
5.03925,1145
5.04402,844
5.04877,1327
5.05353,1095
5.0583,1309
5.06305,1002
5.06782,902
5.07258,775
5.07735,993
5.0821,1222
5.08687,1052
5.09163,1152
5.09638,1138
5.10115,1194
5.10592,923
5.11068,889
5.11543,1220
5.1202,1235
5.12497,1935
5.12973,1030
5.13448,1024
5.13925,769
5.14402,1119
5.14877,1016
5.15353,938
5.1583,1074
5.16307,1891
5.16782,4501
5.17258,5077
5.17735,2925
5.1821,1251
5.18687,1033
5.19163,1018
5.1964,1063
5.20115,986
5.20592,1337
5.21068,826
5.21543,1038
5.2202,1224
5.22497,1008
5.22973,1283
5.23448,1453
5.23925,1079
5.24402,1580
5.24877,753
5.25353,935
5.2583,985
5.26307,1299
5.26782,1327
5.27258,1091
5.27735,1404
5.2821,1182
5.28687,1239
5.29163,1476
5.2964,869
5.30115,1255
5.30592,1097
5.31068,1317
5.31545,1293
5.3202,1107
5.32497,921
5.32973,1572
5.33448,1185
5.33925,1160
5.34402,1404
5.34878,1173
5.35353,1123
5.3583,1382
5.36307,1108
5.36782,1208
5.37258,1120
5.37735,1084
5.38212,1370
5.38687,1353
5.39163,1261
5.3964,1002
5.40115,982
5.40592,902
5.41068,1348
5.41545,1466
5.4202,1141
5.42497,1086
5.42973,1113
5.43448,1403
5.43925,934
5.44402,1404
5.44878,1476
5.45353,1129
5.4583,940
5.46307,1220
5.46783,1344
5.47258,1291
5.47735,1388
5.48212,1256
5.48687,1204
5.49163,1244
5.4964,1477
5.50117,1542
5.50592,1539
5.51068,1292
5.51545,1091
5.5202,1111
5.52497,1340
5.52973,1765
5.5345,1560
5.53925,1505
5.54402,1019
5.54878,1329
5.55353,1104
5.5583,1233
5.56307,1097
5.56783,1119
5.57258,1324
5.57735,1324
5.58212,1306
5.58687,1346
5.59163,1268
5.5964,1553
5.60117,932
5.60592,1135
5.61068,1000
5.61545,1460
5.6202,1268
5.62497,1425
5.62973,1281
5.6345,1215
5.63925,1004
5.64402,1362
5.64878,1215
5.65355,1134
5.6583,1421
5.66307,1271
5.66783,1574
5.67258,1435
5.67735,1587
5.68212,1566
5.68688,1587
5.69163,1074
5.6964,1373
5.70117,1448
5.70592,1161
5.71068,1524
5.71545,1439
5.72022,1441
5.72497,1165
5.72973,1297
5.7345,1289
5.73925,1448
5.74402,1624
5.74878,1730
5.75355,1021
5.7583,1199
5.76307,1584
5.76783,1131
5.77258,1277
5.77735,1589
5.78212,1508
5.78688,1271
5.79163,1538
5.7964,1351
5.80117,1445
5.80593,1617
5.81068,4334
5.81545,4623
5.82022,2390
5.82497,1455
5.82973,1569
5.8345,1605
5.83927,1533
5.84402,1305
5.84878,1411
5.85355,1381
5.8583,1537
5.86307,1531
5.86783,1329
5.8726,1901
5.87735,1722
5.88212,1601
5.88688,1811
5.89163,1407
5.8964,1511
5.90117,1502
5.90593,1829
5.91068,1433
5.91545,1482
5.92022,1585
5.92497,1470
5.92973,1764
5.9345,1631
5.93927,1443
5.94402,1378
5.94878,1530
5.95355,1555
5.9583,1357
5.96307,2176
5.96783,1564
5.9726,1410
5.97735,1422
5.98212,1365
5.98688,1812
5.99165,1581
5.9964,1681
6.00117,1362
6.00593,1473
6.01068,1546
6.01545,1306
6.02022,2055
6.02498,1905
6.02973,1615
6.0345,1715
6.03927,1383
6.04402,1639
6.04878,1856
6.05355,1442
6.05832,1547
6.06307,1537
6.06783,1694
6.0726,1582
6.07735,1602
6.08212,1852
6.08688,1464
6.09165,1722
6.0964,1661
6.10117,1636
6.10593,1626
6.11068,1592
6.11545,1694
6.12022,1512
6.12498,1747
6.12973,1992
6.1345,1560
6.13927,1630
6.14403,1659
6.14878,1696
6.15355,1862
6.15832,1577
6.16307,1882
6.16783,1822
6.1726,1807
6.17737,1626
6.18212,1896
6.18688,1951
6.19165,2004
6.1964,1878
6.20117,1587
6.20593,1871
6.2107,1770
6.21545,2096
6.22022,2003
6.22498,1977
6.22973,2179
6.2345,1951
6.23927,1891
6.24403,2056
6.24878,1994
6.25355,1919
6.25832,1958
6.26307,1697
6.26783,2006
6.2726,1463
6.27737,1899
6.28212,1971
6.28688,1593
6.29165,1923
6.2964,1899
6.30117,2250
6.30593,1888
6.3107,2280
6.31545,1939
6.32022,2231
6.32498,2161
6.32975,1868
6.3345,2075
6.33927,2424
6.34403,2250
6.34878,2371
6.35355,1954
6.35832,2339
6.36308,2042
6.36783,2065
6.3726,1838
6.37737,2117
6.38212,2161
6.38688,2172
6.39165,2138
6.39642,2821
6.40117,2386
6.40593,2161
6.4107,2000
6.41545,2399
6.42022,2385
6.42498,2285
6.42975,2262
6.4345,2159
6.43927,2464
6.44403,2404
6.44878,2425
6.45355,2195
6.45832,2052
6.46308,2768
6.46783,2478
6.4726,2499
6.47737,2239
6.48212,2334
6.48688,3942
6.49165,44073
6.49642,349542
6.50117,2243661
6.50593,6177927
6.5107,5442917
6.51547,1758280
6.52022,586745
6.52498,304509
6.52975,199450
6.5345,140546
6.53927,106687
6.54403,85217
6.5488,70137
6.55355,57892
6.55832,49447
6.56308,41556
6.56783,37091
6.5726,33205
6.57737,30163
6.58213,28303
6.58688,25499
6.59165,24853
6.59642,21318
6.60117,20599
6.60593,17683
6.6107,18171
6.61547,16445
6.62022,15040
6.62498,14183
6.62975,13239
6.6345,11778
6.63927,12495
6.64403,13380
6.6488,11438
6.65355,10591
6.65832,10367
6.66308,10194
6.66785,9198
6.6726,9602
6.67737,8278
6.68213,7843
6.68688,7980
6.69165,8678
6.69642,6810
6.70118,6802
6.70593,7676
6.7107,7002
6.71547,6861
6.72022,7805
6.72498,7350
6.72975,6471
6.73452,7172
6.73927,6274
6.74403,6499
6.7488,6163
6.75355,6865
6.75832,6117
6.76308,5689
6.76785,5736
6.7726,5400
6.77737,6154
6.78213,5459
6.78688,5877
6.79165,5631
6.79642,5721
6.80118,5848
6.80593,4923
6.8107,5424
6.81547,5090
6.82022,4974
6.82498,6043
6.82975,5636
6.83452,5279
6.83927,5351
6.84403,4856
6.8488,4979
6.85357,5553
6.85832,4899
6.86308,5803
6.86785,5121
6.8726,4974
6.87737,5345
6.88213,5096
6.8869,5327
6.89165,5380
6.89642,5180
6.90118,4760
6.90593,4668
6.9107,5451
6.91547,4763
6.92023,5519
6.92498,5117
6.92975,4643
6.93452,6011
6.93927,5792
6.94403,5259
6.9488,5849
6.95357,5413
6.95832,5153
6.96308,4778
6.96785,4568
6.9726,4764
6.97737,5141
6.98213,5072
6.9869,5190
6.99165,5969
6.99642,4384
7.00118,5227
7.00595,4757
7.0107,5031
7.01547,5157
7.02023,5784
7.02498,6045
7.02975,4976
7.03452,4510
7.03928,4855
7.04403,4584
7.0488,3802
7.05357,5020
7.05832,5133
7.06308,4672
7.06785,5495
7.07262,5049
7.07737,4465
7.08213,5451
7.0869,4740
7.09165,5375
7.09642,5002
7.10118,4521
7.10595,5674
7.1107,5623
7.11547,6523
7.12023,5240
7.12498,5305
7.12975,4702
7.13452,4667
7.13928,4770
7.14403,4745
7.1488,5131
7.15357,5267
7.15832,5720
7.16308,5274
7.16785,4920
7.17262,5807
7.17737,5405
7.18213,4817
7.1869,5264
7.19167,5074
7.19642,4916
7.20118,5059
7.20595,5821
7.2107,5638
7.21547,5092
7.22023,5037
7.225,5412
7.22975,5709
7.23452,5681
7.23928,4723
7.24403,5281
7.2488,4567
7.25357,5665
7.25833,5614
7.26308,5498
7.26785,5468
7.27262,4970
7.27737,5437
7.28213,5082
7.2869,5309
7.29167,6014
7.29642,5756
7.30118,4953
7.30595,4140
7.3107,4550
7.31547,5478
7.32023,5077
7.325,5278
7.32975,5840
7.33452,5652
7.33928,4923
7.34403,5761
7.3488,5717
7.35357,5024
7.35833,5133
7.36308,5087
7.36785,6073
7.37262,5397
7.37738,5703
7.38213,6406
7.3869,8335
7.39167,18076
7.39642,64133
7.40118,186742
7.40595,507864
7.41072,1247807
7.41547,2375951
7.42023,2846401
7.425,1785682
7.42975,791816
7.43452,442165
7.43928,292564
7.44405,224808
7.4488,175800
7.45357,141322
7.45833,116055
7.46308,102396
7.46785,80347
7.47262,72432
7.47738,68702
7.48213,60245
7.4869,55083
7.49167,47816
7.49642,44600
7.50118,39279
7.50595,36746
7.51072,32195
7.51547,30391
7.52023,30518
7.525,27017
7.52977,25064
7.53452,24689
7.53928,22383
7.54405,22431
7.5488,19156
7.55357,17682
7.55833,16592
7.5631,18495
7.56785,16438
7.57262,14709
7.57738,14820
7.58213,13856
7.5869,13387
7.59167,13862
7.59643,13620
7.60118,13364
7.60595,12938
7.61072,13420
7.61547,11526
7.62023,11330
7.625,12011
7.62977,10103
7.63452,10796
7.63928,10736
7.64405,10206
7.6488,11386
7.65357,10694
7.65833,10728
7.6631,10497
7.66785,9160
7.67262,9571
7.67738,10100
7.68213,8527
7.6869,8959
7.69167,9695
7.69643,8600
7.70118,8636
7.70595,8242
7.71072,8262
7.71548,8661
7.72023,8472
7.725,8906
7.72977,8149
7.73452,8951
7.73928,7037
7.74405,7703
7.74882,7843
7.75357,8025
7.75833,7796
7.7631,7617
7.76785,7534
7.77262,7324
7.77738,7997
7.78215,8743
7.7869,11434
7.79167,14808
7.79643,14584
7.80118,13245
7.80595,10739
7.81072,9583
7.81548,8694
7.82023,6963
7.825,6018
7.82977,7945
7.83452,7999
7.83928,7347
7.84405,7033
7.84882,6778
7.85357,7030
7.85833,6715
7.8631,6330
7.86787,7718
7.87262,6475
7.87738,7041
7.88215,7260
7.8869,6796
7.89167,6563
7.89643,7397
7.9012,7457
7.90595,6904
7.91072,6767
7.91548,6811
7.92023,7315
7.925,6663
7.92977,6549
7.93453,6507
7.93928,5742
7.94405,6371
7.94882,7372
7.95357,6136
7.95833,5724
7.9631,7379
7.96787,5714
7.97262,5980
7.97738,6535
7.98215,6340
7.9869,5833
7.99167,6669
7.99643,6035
8.0012,6169
8.00595,6486
8.01072,5932
8.01548,5357
8.02023,6499
8.025,7155
8.02977,5325
8.03453,7043
8.03928,6068
8.04405,6982
8.04882,6549
8.05358,5994
8.05833,5908
8.0631,6056
8.06787,5519
8.07262,6878
8.07738,6958
8.08215,5324
8.08692,6092
8.09167,6760
8.09643,5891
8.1012,6479
8.10595,5650
8.11072,5284
8.11548,6431
8.12025,6243
8.125,6637
8.12977,5586
8.13453,6122
8.13928,5763
8.14405,6001
8.14882,6675
8.15358,5846
8.15833,6324
8.1631,6504
8.16787,5947
8.17262,6195
8.17738,6067
8.18215,6196
8.18692,5952
8.19167,5446
8.19643,6045
8.2012,5330
8.20597,5543
8.21072,5644
8.21548,5780
8.22025,6097
8.225,6409
8.22977,5381
8.23453,5340
8.2393,6401
8.24405,5378
8.24882,5393
8.25358,5640
8.25833,6145
8.2631,6884
8.26787,5481
8.27263,6255
8.27738,5564
8.28215,5232
8.28692,5373
8.29167,5944
8.29643,5963
8.3012,5772
8.30597,5237
8.31072,6156
8.31548,5634
8.32025,5206
8.325,5980
8.32977,6732
8.33453,4817
8.3393,6175
8.34405,5700
8.34882,5736
8.35358,4776
8.35833,6307
8.3631,6086
8.36787,5330
8.37263,5340
8.37738,6219
8.38215,5263
8.38692,6176
8.39168,5716
8.39643,5663
8.4012,5530
8.40597,5819
8.41072,6073
8.41548,5437
8.42025,6159
8.42502,6131
8.42977,6355
8.43453,5830
8.4393,5351
8.44405,5846
8.44882,6080
8.45358,5451
8.45835,5795
8.4631,6434
8.46787,5557
8.47263,6222
8.47738,5229
8.48215,6126
8.48692,5228
8.49168,5618
8.49643,5740
8.5012,5579
8.50597,5380
8.51072,5539
8.51548,5927
8.52025,6153
8.52502,6311
8.52977,5925
8.53453,6319
8.5393,6034
8.54405,6503
8.54882,6100
8.55358,5472
8.55835,5333
8.5631,5393
8.56787,5575
8.57263,6266
8.5774,5870
8.58215,5818
8.58692,6109
8.59168,5894
8.59643,5893
8.6012,5117
8.60597,5982
8.61073,5552
8.61548,5398
8.62025,6625
8.62502,6011
8.62977,6372
8.63453,5515
8.6393,6321
8.64407,4996
8.64882,5875
8.65358,5652
8.65835,5492
8.6631,5533
8.66787,6114
8.67263,5805
8.6774,6287
8.68215,6264
8.68692,5951
8.69168,6000
8.69643,5842
8.7012,6617
8.70597,5986
8.71073,6337
8.71548,6125
8.72025,5978
8.72502,5800
8.72978,6341
8.73453,5371
8.7393,5735
8.74407,5678
8.74882,5990
8.75358,5278
8.75835,5680
8.76312,5414
8.76787,6598
8.77263,5826
8.7774,5120
8.78215,5288
8.78692,6242
8.79168,6308
8.79645,5740
8.8012,6449
8.80597,5979
8.81073,5410
8.81548,6247
8.82025,6159
8.82502,5565
8.82978,6437
8.83453,5940
8.8393,6211
8.84407,5366
8.84882,6340
8.85358,5912
8.85835,6095
8.86312,6133
8.86787,5358
8.87263,6018
8.8774,5165
8.88215,5381
8.88692,5138
8.89168,5870
8.89645,5582
8.9012,5698
8.90597,5615
8.91073,5156
8.9155,5943
8.92025,5487
8.92502,5563
8.92978,6078
8.93453,6040
8.9393,5948
8.94407,5988
8.94883,5542
8.95358,5291
8.95835,6035
8.96312,5905
8.96787,6097
8.97263,4973
8.9774,5804
8.98217,6609
8.98692,5967
8.99168,5362
8.99645,5601
9.0012,6166
9.00597,5556
9.01073,5508
9.0155,5729
9.02025,6073
9.02502,6052
9.02978,5498
9.03453,5587
9.0393,6411
9.04407,5668
9.04883,5003
9.05358,5447
9.05835,5007
9.06312,5949
9.06788,5757
9.07263,5083
9.0774,5178
9.08217,5406
9.08692,5563
9.09168,5647
9.09645,6008
9.10122,5849
9.10597,5247
9.11073,5557
9.1155,6016
9.12025,6367
9.12502,6033
9.12978,5391
9.13455,5980
9.1393,6195
9.14407,5520
9.14883,5918
9.15358,5624
9.15835,6039
9.16312,5331
9.16788,5403
9.17263,5969
9.1774,5867
9.18217,5315
9.18692,5704
9.19168,5545
9.19645,5379
9.20122,5474
9.20597,5048
9.21073,6031
9.2155,5018
9.22025,5549
9.22502,5503
9.22978,5483
9.23455,5343
9.2393,6070
9.24407,6049
9.24883,5280
9.2536,4994
9.25835,5511
9.26312,4761
9.26788,6740
9.27263,5339
9.2774,5338
9.28217,5909
9.28693,5471
9.29168,5169
9.29645,5440
9.30122,5303
9.30597,5876
9.31073,5745
9.3155,5342
9.32027,5535
9.32502,5109
9.32978,5711
9.33455,6040
9.3393,5763
9.34407,5604
9.34883,5600
9.3536,5287
9.35835,6982
9.36312,5097
9.36788,5439
9.37263,5532
9.3774,6053
9.38217,4824
9.38693,5155
9.39168,5752
9.39645,5609
9.40122,5891
9.40598,5889
9.41073,5835
9.4155,5896
9.42027,5625
9.42502,5872
9.42978,5310
9.43455,5319
9.43932,6119
9.44407,6395
9.44883,5877
9.4536,5151
9.45835,5462
9.46312,5615
9.46788,4689
9.47265,5757
9.4774,5756
9.48217,6303
9.48693,5675
9.49168,5010
9.49645,5775
9.50122,5599
9.50598,6055
9.51073,6150
9.5155,6082
9.52027,5868
9.52502,5225
9.52978,6312
9.53455,5606
9.53932,6227
9.54407,6016
9.54883,5504
9.5536,5830
9.55835,5884
9.56312,5648
9.56788,6866
9.57265,4894
9.5774,5600
9.58217,5534
9.58693,5371
9.5917,5929
9.59645,6204
9.60122,4987
9.60598,5579
9.61073,4272
9.6155,5023
9.62027,5728
9.62503,5370
9.62978,5608
9.63455,6130
9.63932,5992
9.64407,5281
9.64883,5281
9.6536,5145
9.65837,5410
9.66312,5424
9.66788,5255
9.67265,5777
9.6774,6429
9.68217,5402
9.68693,5188
9.6917,5795
9.69645,5807
9.70122,5392
9.70598,5776
9.71073,5889
9.7155,5932
9.72027,5243
9.72503,6072
9.72978,4979
9.73455,5521
9.73932,4272
9.74407,5335
9.74883,6014
9.7536,5569
9.75837,5738
9.76312,6075
9.76788,6480
9.77265,5271
9.77742,5737
9.78217,5943
9.78693,5513
9.7917,5679
9.79645,5199
9.80122,5662
9.80598,5176
9.81075,5822
9.8155,5685
9.82027,5391
9.82503,4937
9.82978,5898
9.83455,5678
9.83932,5718
9.84408,5894
9.84883,5490
9.8536,4878
9.85837,5667
9.86312,5501
9.86788,6154
9.87265,5336
9.87742,4708
9.88217,5453
9.88693,6112
9.8917,6155
9.89645,5737
9.90122,5667
9.90598,4634
9.91075,5750
9.9155,5853
9.92027,5642
9.92503,5783
9.9298,6351
9.93455,5225
9.93932,5570
9.94408,5202
9.94883,5166
9.9536,6056
9.95837,5380
9.96313,5740
9.96788,5527
9.97265,5690
9.97742,5460
9.98217,5055
9.98693,4714
9.9917,4524
9.99647,5415
10.0012,4980
10.006,5142
10.0108,5083
10.0155,5541
10.0203,5361
10.025,5224
10.0298,6247
10.0346,6223
10.0393,5174
10.0441,5648
10.0488,5355
10.0536,5483
10.0584,5700
10.0631,5704
10.0679,5725
10.0727,5056
10.0774,6037
10.0822,5230
10.0869,5814
10.0917,5661
10.0965,6139
10.1012,4918
10.106,5744
10.1108,6294
10.1155,5796
10.1203,6185
10.125,5117
10.1298,5745
10.1346,6020
10.1393,4831
10.1441,5794
10.1489,5364
10.1536,5210
10.1584,6286
10.1631,5931
10.1679,6340
10.1727,6957
10.1774,8822
10.1822,15725
10.1869,26780
10.1917,47493
10.1965,72078
10.2012,110164
10.206,162213
10.2108,237683
10.2155,339208
10.2203,477610
10.225,660372
10.2298,882263
10.2346,1092639
10.2393,1277861
10.2441,1345381
10.2489,1286188
10.2536,1053485
10.2584,815511
10.2631,615938
10.2679,484140
10.2727,389494
10.2774,328239
10.2822,280636
10.2869,248322
10.2917,218157
10.2965,193253
10.3012,176252
10.306,161302
10.3108,151667
10.3155,132791
10.3203,123100
10.325,112729
10.3298,103992
10.3346,94499
10.3393,90647
10.3441,84014
10.3489,80473
10.3536,74732
10.3584,66727
10.3631,62006
10.3679,64414
10.3727,57101
10.3774,53610
10.3822,53498
10.3869,48795
10.3917,47144
10.3965,43940
10.4012,40725
10.406,38470
10.4108,35358
10.4155,34768
10.4203,34148
10.425,33030
10.4298,30558
10.4346,29074
10.4393,28807
10.4441,26919
10.4489,24992
10.4536,25035
10.4584,21231
10.4631,21641
10.4679,23110
10.4727,21831
10.4774,19067
10.4822,20477
10.487,20089
10.4917,18908
10.4965,17782
10.5012,17038
10.506,16372
10.5108,16180
10.5155,17035
10.5203,14877
10.525,14504
10.5298,13887
10.5346,13606
10.5393,13144
10.5441,12462
10.5489,13550
10.5536,11597
10.5584,12772
10.5631,11140
10.5679,10460
10.5727,11607
10.5774,11565
10.5822,11447
10.587,10284
10.5917,10594
10.5965,9303
10.6012,10848
10.606,9270
10.6108,9859
10.6155,9795
10.6203,9502
10.625,9721
10.6298,9076
10.6346,9084
10.6393,9872
10.6441,8684
10.6489,9839
10.6536,8828
10.6584,8109
10.6631,8491
10.6679,7864
10.6727,9049
10.6774,8461
10.6822,8352
10.687,8419
10.6917,7900
10.6965,8557
10.7012,8802
10.706,8314
10.7108,7667
10.7155,8056
10.7203,7931
10.725,7077
10.7298,9075
10.7346,7549
10.7393,7981
10.7441,6927
10.7489,8013
10.7536,8051
10.7584,8196
10.7631,7645
10.7679,7088
10.7727,6821
10.7774,7472
10.7822,7358
10.787,7447
10.7917,8041
10.7965,8174
10.8012,7125
10.806,6384
10.8108,7317
10.8155,6512
10.8203,6838
10.8251,6707
10.8298,7204
10.8346,8497
10.8393,6074
10.8441,6664
10.8489,6921
10.8536,6763
10.8584,6909
10.8631,6619
10.8679,6323
10.8727,5714
10.8774,6651
10.8822,6368
10.887,6773
10.8917,7512
10.8965,6079
10.9012,7380
10.906,6313
10.9108,6416
10.9155,6320
10.9203,6572
10.9251,6238
10.9298,6233
10.9346,6347
10.9393,5946
10.9441,6878
10.9489,6329
10.9536,7381
10.9584,6188
10.9631,6933
10.9679,6286
10.9727,6724
10.9774,7233
10.9822,6682
10.987,6206
10.9917,6381
10.9965,7093
11.0012,6233
11.006,6198
11.0108,5574
11.0155,6588
11.0203,5676
11.0251,5342
11.0298,6475
11.0346,6627
11.0393,5839
11.0441,6164
11.0489,6600
11.0536,6331
11.0584,6075
11.0631,6341
11.0679,5378
11.0727,6612
11.0774,6162
11.0822,6544
11.087,6617
11.0917,7250
11.0965,5921
11.1012,6655
11.106,5906
11.1108,5750
11.1155,7252
11.1203,5721
11.1251,5253
11.1298,7111
11.1346,6649
11.1393,6245
11.1441,5744
11.1489,6020
11.1536,6711
11.1584,6666
11.1632,6438
11.1679,5903
11.1727,6228
11.1774,6291
11.1822,6877
11.187,5643
11.1917,5922
11.1965,6195
11.2012,5513
11.206,6035
11.2108,6107
11.2155,5838
11.2203,5521
11.2251,5788
11.2298,6240
11.2346,5938
11.2393,6516
11.2441,6576
11.2489,5831
11.2536,5513
11.2584,4950
11.2632,5583
11.2679,6289
11.2727,5587
11.2774,6755
11.2822,5455
11.287,6085
11.2917,6914
11.2965,6816
11.3012,6347
11.306,5319
11.3108,6319
11.3155,5651
11.3203,6222
11.3251,7344
11.3298,6188
11.3346,5849
11.3393,5798
11.3441,6089
11.3489,5602
11.3536,5844
11.3584,5485
11.3632,6323
11.3679,5347
11.3727,5941
11.3774,6054
11.3822,5312
11.387,5840
11.3917,6366
11.3965,6534
11.4012,6274
11.406,5652
11.4108,5454
11.4155,6470
11.4203,6313
11.4251,6164
11.4298,5861
11.4346,5743
11.4393,5120
11.4441,5762
11.4489,5654
11.4536,6185
11.4584,5605
11.4632,4954
11.4679,6445
11.4727,6038
11.4774,6117
11.4822,5756
11.487,5851
11.4917,4854
11.4965,5715
11.5013,5467
11.506,6027
11.5108,4943
11.5155,6191
11.5203,5903
11.5251,5790
11.5298,5665
11.5346,5603
11.5393,6177
11.5441,5879
11.5489,6289
11.5536,5974
11.5584,6121
11.5632,6645
11.5679,6226
11.5727,6137
11.5774,5862
11.5822,5676
11.587,5782
11.5917,5715
11.5965,5182
11.6013,5899
11.606,5508
11.6108,5961
11.6155,6182
11.6203,5625
11.6251,6146
11.6298,6217
11.6346,6522
11.6393,5365
11.6441,5773
11.6489,5961
11.6536,5949
11.6584,5225
11.6632,4991
11.6679,6024
11.6727,5235
11.6774,5394
11.6822,5511
11.687,5096
11.6917,5635
11.6965,5821
11.7013,4990
11.706,5697
11.7108,5594
11.7155,6368
11.7203,5741
11.7251,4606
11.7298,5720
11.7346,5054
11.7393,5637
11.7441,5651
11.7489,5967
11.7536,6060
11.7584,5305
11.7632,5887
11.7679,5625
11.7727,6810
11.7774,6171
11.7822,5383
11.787,5581
11.7917,5249
11.7965,6094
11.8013,5712
11.806,5535
11.8108,5275
11.8155,5747
11.8203,5745
11.8251,5606
11.8298,6162
11.8346,5116
11.8394,5138
11.8441,5400
11.8489,6094
11.8536,5489
11.8584,5674
11.8632,5626
11.8679,5611
11.8727,5249
11.8774,5209
11.8822,5308
11.887,5040
11.8917,5207
11.8965,6121
11.9013,5248
11.906,5144
11.9108,5290
11.9155,5876
11.9203,5378
11.9251,5356
11.9298,5905
11.9346,5290
11.9394,5417
11.9441,6034
11.9489,5585
11.9536,5182
11.9584,5519
11.9632,5733
11.9679,5631
11.9727,5471
11.9774,5684
11.9822,5828
11.987,4882
11.9917,5691
11.9965,5094
12.0013,5468
12.006,4880
12.0108,6006
12.0155,5444
12.0203,5615
12.0251,5559
12.0298,5600
12.0346,5843
12.0394,6101
12.0441,6196
12.0489,5732
12.0536,5808
12.0584,5351
12.0632,5861
12.0679,4799
12.0727,5191
12.0774,4927
12.0822,5757
12.087,5285
12.0917,5972
12.0965,5547
12.1013,6433
12.106,6252
12.1108,5111
12.1155,5546
12.1203,5639
12.1251,5691
12.1298,5793
12.1346,5144
12.1394,5635
12.1441,5136
12.1489,5762
12.1536,5504
12.1584,5099
12.1632,5018
12.1679,5181
12.1727,5099
12.1775,5880
12.1822,5116
12.187,5636
12.1917,5681
12.1965,5373
12.2013,5275
12.206,5710
12.2108,5662
12.2155,5332
12.2203,5700
12.2251,5423
12.2298,5686
12.2346,5818
12.2394,5231
12.2441,5617
12.2489,5680
12.2536,5377
12.2584,5190
12.2632,5082
12.2679,5427
12.2727,6086
12.2775,5425
12.2822,5104
12.287,5364
12.2917,5742
12.2965,5473
12.3013,5968
12.306,5213
12.3108,6421
12.3155,5669
12.3203,5798
12.3251,5303
12.3298,5015
12.3346,5477
12.3394,5039
12.3441,5473
12.3489,6130
12.3536,6285
12.3584,5295
12.3632,5559
12.3679,5333
12.3727,5673
12.3775,4987
12.3822,6473
12.387,5454
12.3917,5917
12.3965,5970
12.4013,6351
12.406,5174
12.4108,5326
12.4155,5388
12.4203,5671
12.4251,6081
12.4298,5551
12.4346,5375
12.4394,5550
12.4441,5625
12.4489,6081
12.4536,5577
12.4584,5360
12.4632,4975
12.4679,5399
12.4727,5534
12.4775,5948
12.4822,5052
12.487,5278
12.4917,5548
12.4965,5723
12.5013,5263
12.506,6053
12.5108,6214
12.5156,5365
12.5203,5115
12.5251,5191
12.5298,5492
12.5346,5009
12.5394,5025
12.5441,5470
12.5489,5024
12.5536,4626
12.5584,5230
12.5632,5337
12.5679,5124
12.5727,5428
12.5775,5611
12.5822,5796
12.587,5661
12.5917,5705
12.5965,5786
12.6013,5160
12.606,4974
12.6108,5898
12.6156,5014
12.6203,4720
12.6251,5285
12.6298,6625
12.6346,5495
12.6394,6240
12.6441,6143
12.6489,5883
12.6536,5301
12.6584,6056
12.6632,6071
12.6679,5303
12.6727,5474
12.6775,5430
12.6822,5564
12.687,5045
12.6917,5245
12.6965,5495
12.7013,5486
12.706,5401
12.7108,5201
12.7156,5912
12.7203,5858
12.7251,4937
12.7298,5688
12.7346,5393
12.7394,5546
12.7441,4946
12.7489,5759
12.7536,5152
12.7584,5104
12.7632,5425
12.7679,6365
12.7727,5257
12.7775,4924
12.7822,5073
12.787,6026
12.7917,5798
12.7965,5440
12.8013,5551
12.806,5012
12.8108,5621
12.8156,5355
12.8203,5526
12.8251,5382
12.8298,5395
12.8346,5495
12.8394,5062
12.8441,5382
12.8489,5879
12.8537,5195
12.8584,4886
12.8632,5353
12.8679,5663
12.8727,4950
12.8775,5132
12.8822,5549
12.887,5748
12.8917,5241
12.8965,5580
12.9013,5758
12.906,5862
12.9108,5688
12.9156,5157
12.9203,5716
12.9251,5719
12.9298,5961
12.9346,5188
12.9394,4771
12.9441,4907
12.9489,5521
12.9537,4963
12.9584,5900
12.9632,5734
12.9679,4490
12.9727,5598
12.9775,5005
12.9822,4862
12.987,5607
12.9917,5283
12.9965,5993
13.0013,5429
13.006,5429
13.0108,5547
13.0156,5652
13.0203,5587
13.0251,5055
13.0298,5148
13.0346,5325
13.0394,6201
13.0441,6550
13.0489,5370
13.0537,4887
13.0584,4984
13.0632,5302
13.0679,5104
13.0727,5906
13.0775,5957
13.0822,6072
13.087,5613
13.0917,4464
13.0965,5438
13.1013,5815
13.106,6013
13.1108,5161
13.1156,6058
13.1203,5754
13.1251,5314
13.1298,4773
13.1346,6554
13.1394,5691
13.1441,4581
13.1489,5608
13.1537,5506
13.1584,5527
13.1632,5517
13.1679,5188
13.1727,5866
13.1775,6173
13.1822,5516
13.187,6176
13.1918,5619
13.1965,5167
13.2013,5228
13.206,4615
13.2108,5395
13.2156,4962
13.2203,5568
13.2251,5779
13.2298,5803
13.2346,5230
13.2394,5031
13.2441,5599
13.2489,5301
13.2537,5837
13.2584,4970
13.2632,6563
13.2679,5237
13.2727,5607
13.2775,5322
13.2822,5136
13.287,5429
13.2918,5578
13.2965,5489
13.3013,6161
13.306,5068
13.3108,5560
13.3156,5189
13.3203,5513
13.3251,5489
13.3298,5587
13.3346,6134
13.3394,5465
13.3441,5315
13.3489,5452
13.3537,5449
13.3584,5085
13.3632,5135
13.3679,6363
13.3727,5402
13.3775,5558
13.3822,5725
13.387,5605
13.3918,5220
13.3965,5384
13.4013,5858
13.406,5515
13.4108,5879
13.4156,6072
13.4203,5911
13.4251,5996
13.4298,4983
13.4346,5669
13.4394,4908
13.4441,5879
13.4489,5494
13.4537,5051
13.4584,5679
13.4632,5429
13.4679,5265
13.4727,5769
13.4775,5729
13.4822,5267
13.487,5550
13.4918,6046
13.4965,5591
13.5013,5578
13.506,5367
13.5108,5422
13.5156,5093
13.5203,6308
13.5251,4894
13.5299,5415
13.5346,5751
13.5394,5658
13.5441,5571
13.5489,6568
13.5537,4869
13.5584,5517
13.5632,5818
13.5679,5370
13.5727,5777
13.5775,5786
13.5822,6175
13.587,5803
13.5918,4756
13.5965,5039
13.6013,4799
13.606,4697
13.6108,6170
13.6156,5630
13.6203,5384
13.6251,5614
13.6299,5726
13.6346,5805
13.6394,5957
13.6441,4621
13.6489,4782
13.6537,4947
13.6584,5535
13.6632,5932
13.6679,4768
13.6727,5728
13.6775,5852
13.6822,5698
13.687,5213
13.6918,5592
13.6965,5518
13.7013,5527
13.706,5130
13.7108,5625
13.7156,6024
13.7203,5224
13.7251,5779
13.7299,4748
13.7346,6100
13.7394,4670
13.7441,5886
13.7489,5167
13.7537,5977
13.7584,5273
13.7632,5366
13.7679,4769
13.7727,5802
13.7775,5799
13.7822,5400
13.787,5501
13.7918,5049
13.7965,4734
13.8013,6201
13.806,5909
13.8108,5361
13.8156,4761
13.8203,4882
13.8251,5080
13.8299,5861
13.8346,5596
13.8394,5577
13.8441,5473
13.8489,5487
13.8537,5856
13.8584,4825
13.8632,6184
13.868,6426
13.8727,5852
13.8775,5135
13.8822,5410
13.887,4871
13.8918,5778
13.8965,4905
13.9013,4649
13.906,5246
13.9108,5358
13.9156,4756
13.9203,5265
13.9251,4961
13.9299,5499
13.9346,4559
13.9394,5470
13.9441,5587
13.9489,6175
13.9537,5572
13.9584,5304
13.9632,4566
13.968,5161
13.9727,5293
13.9775,5905
13.9822,5222
13.987,4685
13.9918,5229
13.9965,4682
14.0013,5053
14.006,5535
14.0108,6004
14.0156,5794
14.0203,4959
14.0251,5874
14.0299,5126
14.0346,5177
14.0394,4998
14.0441,5581
14.0489,6149
14.0537,5374
14.0584,5452
14.0632,5741
14.068,5919
14.0727,5361
14.0775,5088
14.0822,4932
14.087,5591
14.0918,5258
14.0965,5383
14.1013,7195
14.106,5546
14.1108,5192
14.1156,5381
14.1203,5464
14.1251,5062
14.1299,5105
14.1346,5385
14.1394,6064
14.1441,4766
14.1489,5403
14.1537,5171
14.1584,5650
14.1632,6022
14.168,5307
14.1727,5375
14.1775,5075
14.1822,5574
14.187,5670
14.1918,4815
14.1965,5261
14.2013,5050
14.206,5099
14.2108,5049
14.2156,4913
14.2203,5648
14.2251,5492
14.2299,5226
14.2346,4654
14.2394,5794
14.2441,5218
14.2489,5942
14.2537,5782
14.2584,5385
14.2632,5640
14.268,5342
14.2727,5103
14.2775,5469
14.2822,5170
14.287,4824
14.2918,5418
14.2965,5486
14.3013,5372
14.3061,5295
14.3108,5336
14.3156,5387
14.3203,6104
14.3251,5475
14.3299,6044
14.3346,5380
14.3394,5297
14.3441,5674
14.3489,5371
14.3537,5149
14.3584,5671
14.3632,5156
14.368,4968
14.3727,5163
14.3775,5078
14.3822,5440
14.387,5525
14.3918,5874
14.3965,5255
14.4013,5491
14.4061,5065
14.4108,5170
14.4156,5497
14.4203,5308
14.4251,5294
14.4299,5003
14.4346,5568
14.4394,5764
14.4441,4680
14.4489,6008
14.4537,5686
14.4584,5052
14.4632,5108
14.468,4982
14.4727,5553
14.4775,5020
14.4822,6114
14.487,5295
14.4918,5190
14.4965,5340
14.5013,5654
14.5061,6291
14.5108,4780
14.5156,5185
14.5203,5626
14.5251,5922
14.5299,5307
14.5346,5147
14.5394,5962
14.5441,4791
14.5489,6070
14.5537,4374
14.5584,4470
14.5632,4924
14.568,5599
14.5727,5342
14.5775,5006
14.5822,6110
14.587,4773
14.5918,5401
14.5965,5184
14.6013,4938
14.6061,5000
14.6108,5237
14.6156,4899
14.6203,5585
14.6251,5012
14.6299,4910
14.6346,5946
14.6394,4992
14.6442,5710
14.6489,5263
14.6537,5131
14.6584,5942
