D:\MassHunter\GCMS\1\data\Victoria Marland\22FEB\220223043.D 24 Feb 22  04:23 am
Start of data points
3.09147,628
3.09622,589
3.10098,653
3.10575,1049
3.11052,543
3.11527,583
3.12003,687
3.1248,875
3.12955,863
3.13432,865
3.13908,815
3.14385,716
3.1486,888
3.15337,792
3.15813,1009
3.16288,1014
3.16765,802
3.17242,856
3.17718,913
3.18193,810
3.1867,703
3.19147,880
3.19623,890
3.20098,1089
3.20575,601
3.21052,737
3.21527,891
3.22003,901
3.2248,871
3.22957,708
3.23432,988
3.23908,989
3.24385,1004
3.2486,762
3.25337,820
3.25813,766
3.2629,727
3.26765,786
3.27242,711
3.27718,711
3.28193,802
3.2867,560
3.29147,631
3.29623,749
3.30098,493
3.30575,680
3.31052,970
3.31527,484
3.32003,696
3.3248,682
3.32957,839
3.33432,645
3.33908,933
3.34385,940
3.34862,541
3.35337,635
3.35813,560
3.3629,781
3.36765,897
3.37242,485
3.37718,784
3.38195,919
3.3867,888
3.39147,1015
3.39623,986
3.40098,1026
3.40575,597
3.41052,843
3.41528,676
3.42003,645
3.4248,677
3.42957,832
3.43432,482
3.43908,647
3.44385,703
3.44862,560
3.45337,759
3.45813,710
3.4629,1046
3.46765,894
3.47242,924
3.47718,819
3.48195,859
3.4867,768
3.49147,562
3.49623,664
3.50098,661
3.50575,696
3.51052,849
3.51528,6108
3.52003,24310
3.5248,54472
3.52957,49704
3.53433,18062
3.53908,3263
3.54385,973
3.54862,958
3.55337,663
3.55813,656
3.5629,645
3.56767,772
3.57242,678
3.57718,664
3.58195,722
3.5867,802
3.59147,784
3.59623,515
3.601,754
3.60575,838
3.61052,597
3.61528,864
3.62003,608
3.6248,730
3.62957,688
3.63433,652
3.63908,496
3.64385,834
3.64862,622
3.65337,996
3.65813,616
3.6629,801
3.66767,742
3.67242,604
3.67718,652
3.68195,850
3.68672,619
3.69147,727
3.69623,594
3.701,541
3.70575,706
3.71052,670
3.71528,870
3.72005,640
3.7248,880
3.72957,801
3.73433,832
3.73908,974
3.74385,1083
3.74862,1387
3.75338,1110
3.75813,1096
3.7629,836
3.76767,624
3.77242,884
3.77718,914
3.78195,923
3.78672,966
3.79147,1317
3.79623,1014
3.801,700
3.80575,814
3.81052,916
3.81528,621
3.82005,907
3.8248,1098
3.82957,867
3.83433,716
3.83908,692
3.84385,915
3.84862,779
3.85338,771
3.85813,535
3.8629,799
3.86767,561
3.87243,731
3.87718,1056
3.88195,639
3.88672,879
3.89147,726
3.89623,664
3.901,789
3.90577,696
3.91052,618
3.91528,792
3.92005,646
3.9248,590
3.92957,903
3.93433,747
3.9391,722
3.94385,892
3.94862,641
3.95338,623
3.95813,973
3.9629,876
3.96767,934
3.97243,866
3.97718,977
3.98195,1039
3.98672,1087
3.99147,619
3.99623,791
4.001,760
4.00577,852
4.01052,614
4.01528,857
4.02005,727
4.02482,736
4.02957,723
4.03433,894
4.0391,912
4.04385,878
4.04862,633
4.05338,812
4.05815,778
4.0629,920
4.06767,683
4.07243,909
4.07718,891
4.08195,756
4.08672,807
4.09148,936
4.09623,767
4.101,738
4.10577,958
4.11052,844
4.11528,1172
4.12005,883
4.12482,994
4.12957,931
4.13433,668
4.1391,795
4.14385,863
4.14862,859
4.15338,835
4.15815,753
4.1629,991
4.16767,798
4.17243,853
4.17718,911
4.18195,985
4.18672,939
4.19148,883
4.19623,982
4.201,1145
4.20577,1478
4.21053,8819
4.21528,26272
4.22005,38408
4.22482,20287
4.22957,4940
4.23433,1228
4.2391,872
4.24387,726
4.24862,965
4.25338,1045
4.25815,846
4.2629,824
4.26767,918
4.27243,957
4.2772,722
4.28195,986
4.28672,847
4.29148,948
4.29623,1005
4.301,951
4.30577,1111
4.31053,935
4.31528,768
4.32005,1026
4.32482,731
4.32957,912
4.33433,1122
4.3391,716
4.34387,986
4.34862,777
4.35338,676
4.35815,841
4.3629,773
4.36767,985
4.37243,1106
4.3772,1059
4.38195,812
4.38672,1040
4.39148,1041
4.39625,946
4.401,1160
4.40577,2086
4.41053,2296
4.41528,1604
4.42005,1418
4.42482,1524
4.42958,2202
4.43433,1635
4.4391,751
4.44387,986
4.44862,1110
4.45338,1068
4.45815,885
4.46292,1179
4.46767,1237
4.47243,698
4.4772,707
4.48195,707
4.48672,985
4.49148,784
4.49625,914
4.501,1164
4.50577,1111
4.51053,1186
4.51528,1081
4.52005,892
4.52482,818
4.52958,744
4.53433,1048
4.5391,991
4.54387,796
4.54863,746
4.55338,1164
4.55815,1084
4.56292,1055
4.56767,1226
4.57243,1194
4.5772,817
4.58197,956
4.58672,991
4.59148,1287
4.59625,889
4.601,1909
4.60577,949
4.61053,809
4.6153,833
4.62005,953
4.62482,1057
4.62958,1407
4.63433,852
4.6391,894
4.64387,1124
4.64863,993
4.65338,1055
4.65815,847
4.66292,856
4.66767,1184
4.67243,943
4.6772,1114
4.68197,1113
4.68672,788
4.69148,705
4.69625,1043
4.701,750
4.70577,1037
4.71053,1033
4.7153,1000
4.72005,808
4.72482,1228
4.72958,718
4.73435,722
4.7391,1024
4.74387,918
4.74863,1083
4.75338,1013
4.75815,770
4.76292,897
4.76768,902
4.77243,819
4.7772,791
4.78197,1222
4.78672,1073
4.79148,996
4.79625,2398
4.80102,7799
4.80577,19345
4.81053,20957
4.8153,10257
4.82005,2736
4.82482,944
4.82958,1156
4.83435,1000
4.8391,975
4.84387,985
4.84863,1036
4.85338,1449
4.85815,1254
4.86292,998
4.86768,975
4.87243,949
4.8772,1118
4.88197,810
4.88673,1204
4.89148,818
4.89625,951
4.90102,907
4.90577,936
4.91053,940
4.9153,1221
4.92007,1057
4.92482,800
4.92958,788
4.93435,947
4.9391,972
4.94387,1023
4.94863,832
4.9534,988
4.95815,1095
4.96292,815
4.96768,1075
4.97243,1165
4.9772,1601
4.98197,3149
4.98673,3886
4.99148,3771
4.99625,2890
5.00102,1561
5.00577,1181
5.01053,1174
5.0153,1174
5.02007,2233
5.02482,987
5.02958,1026
5.03435,834
5.0391,972
5.04387,1033
5.04863,1179
5.0534,1146
5.05815,1054
5.06292,1088
5.06768,768
5.07245,948
5.0772,1234
5.08197,1157
5.08673,949
5.09148,1061
5.09625,913
5.10102,1200
5.10578,1020
5.11053,1275
5.1153,945
5.12007,1360
5.12482,1138
5.12958,1148
5.13435,1040
5.13912,991
5.14387,1330
5.14863,1019
5.1534,1197
5.15815,1288
5.16292,1173
5.16768,1579
5.17245,1713
5.1772,1394
5.18197,1309
5.18673,813
5.19148,1009
5.19625,1075
5.20102,1183
5.20578,1204
5.21053,1119
5.2153,1101
5.22007,1179
5.22483,1075
5.22958,1204
5.23435,1294
5.23912,1100
5.24387,1025
5.24863,1287
5.2534,1275
5.25817,1190
5.26292,1662
5.26768,909
5.27245,1162
5.2772,1409
5.28197,1268
5.28673,1386
5.2915,1229
5.29625,1418
5.30102,937
5.30578,1338
5.31053,1339
5.3153,1601
5.32007,2800
5.32483,8016
5.32958,13458
5.33435,10066
5.33912,3876
5.34387,1106
5.34863,1277
5.3534,972
5.35817,1028
5.36292,837
5.36768,890
5.37245,1237
5.3772,1230
5.38197,1316
5.38673,1234
5.3915,1281
5.39625,1194
5.40102,1301
5.40578,1159
5.41055,1303
5.4153,1158
5.42007,1262
5.42483,1006
5.42958,1307
5.43435,1233
5.43912,1326
5.44388,1224
5.44863,1296
5.4534,1305
5.45817,1274
5.46292,1212
5.46768,1326
5.47245,1430
5.47722,1250
5.48197,1023
5.48673,1309
5.4915,2423
5.49625,5677
5.50102,8403
5.50578,4980
5.51055,2521
5.5153,1711
5.52007,1563
5.52483,1439
5.52958,1428
5.53435,1874
5.53912,1602
5.54388,1496
5.54863,1471
5.5534,1081
5.55817,1389
5.56293,1387
5.56768,1294
5.57245,976
5.57722,1351
5.58197,1827
5.58673,1288
5.5915,1447
5.59627,1259
5.60102,1176
5.60578,1230
5.61055,1417
5.6153,1010
5.62007,1373
5.62483,1316
5.6296,1368
5.63435,1503
5.63912,1678
5.64388,1450
5.64863,1230
5.6534,1170
5.65817,1387
5.66293,1499
5.66768,1317
5.67245,1527
5.67722,1233
5.68197,1120
5.68673,984
5.6915,1481
5.69627,1608
5.70102,1252
5.70578,1296
5.71055,1469
5.7153,1257
5.72007,1704
5.72483,1701
5.7296,1572
5.73435,1986
5.73912,1705
5.74388,1851
5.74865,1303
5.7534,1525
5.75817,1534
5.76293,1343
5.76768,1464
5.77245,1435
5.77722,1283
5.78198,1159
5.78673,1388
5.7915,1925
5.79627,3510
5.80102,8750
5.80578,10822
5.81055,6613
5.81532,3665
5.82007,2064
5.82483,1279
5.8296,1563
5.83435,1857
5.83912,1684
5.84388,1432
5.84865,1614
5.8534,1490
5.85817,1739
5.86293,1711
5.86768,1768
5.87245,1473
5.87722,1431
5.88198,1546
5.88673,1700
5.8915,1639
5.89627,1693
5.90102,2461
5.90578,3613
5.91055,2717
5.91532,1869
5.92007,1717
5.92483,1796
5.9296,1747
5.93437,1780
5.93912,1481
5.94388,1803
5.94865,1639
5.9534,2156
5.95817,4089
5.96293,10250
5.9677,12364
5.97245,7282
5.97722,3122
5.98198,2186
5.98673,1495
5.9915,1747
5.99627,1935
6.00103,1674
6.00578,1794
6.01055,1455
6.01532,1713
6.02007,1546
6.02483,1407
6.0296,1450
6.03437,1681
6.03912,1563
6.04388,1467
6.04865,1858
6.0534,2176
6.05817,1464
6.06293,1538
6.0677,1757
6.07245,1704
6.07722,1859
6.08198,1707
6.08675,1662
6.0915,1706
6.09627,1631
6.10103,2000
6.10578,2187
6.11055,2222
6.11532,1757
6.12008,1915
6.12483,1639
6.1296,1346
6.13437,1762
6.13912,1976
6.14388,1737
6.14865,1881
6.15342,1616
6.15817,1845
6.16293,1405
6.1677,1886
6.17245,2018
6.17722,2298
6.18198,2281
6.18675,2119
6.1915,1398
6.19627,1932
6.20103,1717
6.20578,2153
6.21055,1722
6.21532,2209
6.22008,2555
6.22483,4268
6.2296,7830
6.23437,10058
6.23912,8332
6.24388,3874
6.24865,1932
6.25342,1779
6.25817,2140
6.26293,1987
6.2677,2015
6.27247,2014
6.27722,1503
6.28198,2309
6.28675,2102
6.2915,2514
6.29627,1671
6.30103,1899
6.3058,1679
6.31055,2011
6.31532,2415
6.32008,2093
6.32483,2074
6.3296,2404
6.33437,2014
6.33913,2007
6.34388,2144
6.34865,1735
6.35342,2361
6.35817,2145
6.36293,2493
6.3677,2468
6.37247,2306
6.37722,2191
6.38198,3819
6.38675,8573
6.3915,14299
6.39627,14932
6.40103,8485
6.4058,4210
6.41055,2650
6.41532,2772
6.42008,2519
6.42485,2286
6.4296,2503
6.43437,2403
6.43913,2233
6.44388,2653
6.44865,2047
6.45342,2274
6.45818,2664
6.46293,2776
6.4677,2435
6.47247,2435
6.47722,2151
6.48198,2619
6.48675,3985
6.49152,34085
6.49627,286140
6.50103,1910829
6.5058,6316116
6.51055,6644224
6.51532,2376309
6.52008,734215
6.52485,348815
6.5296,216847
6.53437,154675
6.53913,115545
6.54388,92171
6.54865,76887
6.55342,61354
6.55818,51799
6.56293,44430
6.5677,39061
6.57247,34853
6.57722,31147
6.58198,27118
6.58675,26264
6.59152,24476
6.59627,23740
6.60103,19654
6.6058,16981
6.61057,16746
6.61532,16362
6.62008,19027
6.62485,22937
6.6296,26579
6.63437,20859
6.63913,16332
6.6439,12900
6.64865,11513
6.65342,12011
6.65818,11124
6.66293,10604
6.6677,9568
6.67247,9321
6.67723,8947
6.68198,9428
6.68675,8378
6.69152,8814
6.69627,7517
6.70103,8057
6.7058,6679
6.71057,7294
6.71532,6791
6.72008,6497
6.72485,6184
6.7296,6754
6.73437,7318
6.73913,7289
6.7439,7001
6.74865,5193
6.75342,5710
6.75818,6351
6.76295,5978
6.7677,5665
6.77247,6178
6.77723,7258
6.78198,10191
6.78675,17972
6.79152,19959
6.79628,15321
6.80103,10619
6.8058,8067
6.81057,6480
6.81532,6314
6.82008,6341
6.82485,5602
6.82962,5084
6.83437,4839
6.83913,5571
6.8439,6309
6.84865,5390
6.85342,5471
6.85818,4971
6.86295,5233
6.8677,5516
6.87247,4831
6.87723,5378
6.88198,6094
6.88675,6045
6.89152,5444
6.89628,5503
6.90103,5271
6.9058,5239
6.91057,5409
6.91532,4678
6.92008,4950
6.92485,5373
6.92962,4588
6.93437,5362
6.93913,5176
6.9439,5826
6.94867,4920
6.95342,4735
6.95818,4410
6.96295,5040
6.9677,5365
6.97247,5188
6.97723,5256
6.982,5832
6.98675,5511
6.99152,5350
6.99628,4883
7.00103,5185
7.0058,6176
7.01057,8307
7.01533,11748
7.02008,13997
7.02485,12864
7.02962,8496
7.03437,6615
7.03913,4827
7.0439,4905
7.04867,4589
7.05342,5572
7.05818,4703
7.06295,4962
7.0677,5640
7.07247,5668
7.07723,4940
7.082,5036
7.08675,5199
7.09152,5235
7.09628,5678
7.10105,5154
7.1058,4800
7.11057,4687
7.11533,5096
7.12008,5129
7.12485,4902
7.12962,4773
7.13438,4694
7.13913,5079
7.1439,5817
7.14867,5921
7.15342,4949
7.15818,5197
7.16295,5633
7.16772,5441
7.17247,4404
7.17723,5832
7.182,5356
7.18675,5072
7.19152,6019
7.19628,6053
7.20105,8072
7.2058,9502
7.21057,13757
7.21533,15942
7.22008,13983
7.22485,11645
7.22962,8723
7.23438,6858
7.23913,6074
7.2439,6168
7.24867,5684
7.25342,4684
7.25818,4692
7.26295,5332
7.26772,5284
7.27247,5409
7.27723,5208
7.282,5090
7.28677,5507
7.29152,5197
7.29628,5666
7.30105,4804
7.3058,5340
7.31057,4896
7.31533,5206
7.3201,5745
7.32485,5756
7.32962,5436
7.33438,5669
7.33913,5052
7.3439,6057
7.34867,5665
7.35343,5298
7.35818,5749
7.36295,5137
7.36772,5133
7.37247,5922
7.37723,5405
7.382,4918
7.38677,5957
7.39152,4928
7.39628,5159
7.40105,5423
7.4058,5413
7.41057,5872
7.41533,5690
7.4201,4478
7.42485,6008
7.42962,4290
7.43438,5472
7.43913,5080
7.4439,5272
7.44867,6182
7.45343,6048
7.45818,6288
7.46295,6831
7.46772,10072
7.47248,11346
7.47723,11128
7.482,10570
7.48677,8144
7.49152,6226
7.49628,5772
7.50105,5042
7.50582,5257
7.51057,5150
7.51533,4854
7.5201,5036
7.52485,5986
7.52962,4849
7.53438,5145
7.53915,5313
7.5439,5477
7.54867,5480
7.55343,4631
7.55818,5269
7.56295,5318
7.56772,5209
7.57248,5248
7.57723,5859
7.582,4765
7.58677,4997
7.59152,5464
7.59628,6240
7.60105,4807
7.60582,4677
7.61057,5053
7.61533,6045
7.6201,5816
7.62487,5095
7.62962,5484
7.63438,5403
7.63915,4821
7.6439,6247
7.64867,5872
7.65343,5296
7.6582,5568
7.66295,5700
7.66772,5481
7.67248,5731
7.67723,6123
7.682,5956
7.68677,5731
7.69153,5185
7.69628,5231
7.70105,5318
7.70582,5559
7.71057,6982
7.71533,8110
7.7201,8994
7.72487,10311
7.72962,12261
7.73438,12007
7.73915,9966
7.7439,8737
7.74867,7617
7.75343,7387
7.7582,5359
7.76295,5043
7.76772,5296
7.77248,5293
7.77723,5110
7.782,6127
7.78677,5261
7.79153,5569
7.79628,5154
7.80105,5259
7.80582,5031
7.81058,5080
7.81533,5655
7.8201,5180
7.82487,5331
7.82962,5931
7.83438,5085
7.83915,6089
7.84392,4462
7.84867,6059
7.85343,5344
7.8582,4772
7.86295,4530
7.86772,5190
7.87248,4875
7.87725,5494
7.882,5242
7.88677,5442
7.89153,6152
7.89628,5469
7.90105,4812
7.90582,5795
7.91058,5750
7.91533,4992
7.9201,4777
7.92487,5087
7.92962,5631
7.93438,5318
7.93915,6013
7.94392,5514
7.94867,4469
7.95343,4817
7.9582,5830
7.96297,5141
7.96772,5318
7.97248,5300
7.97725,5228
7.982,5163
7.98677,5247
7.99153,6488
7.9963,5698
8.00105,6329
8.00582,6136
8.01058,6912
8.01533,8619
8.0201,10283
8.02487,10854
8.02963,9960
8.03438,8766
8.03915,7903
8.04392,6524
8.04867,5988
8.05343,5603
8.0582,5013
8.06297,5594
8.06772,4917
8.07248,5552
8.07725,5333
8.082,5815
8.08677,5425
8.09153,4924
8.0963,6112
8.10105,5533
8.10582,5717
8.11058,4967
8.11533,5341
8.1201,5041
8.12487,4975
8.12963,5245
8.13438,6224
8.13915,5640
8.14392,5007
8.14868,5175
8.15343,5205
8.1582,5340
8.16297,5243
8.16772,5453
8.17248,5379
8.17725,4745
8.18202,5328
8.18677,5800
8.19153,4825
8.1963,5080
8.20105,5191
8.20582,5408
8.21058,5972
8.21535,5096
8.2201,5185
8.22487,6123
8.22963,5435
8.23438,5438
8.23915,5019
8.24392,5710
8.24868,5726
8.25343,5173
8.2582,5564
8.26297,5614
8.26772,4504
8.27248,5161
8.27725,4969
8.28202,4905
8.28677,5342
8.29153,5332
8.2963,6096
8.30107,4579
8.30582,4700
8.31058,5664
8.31535,5590
8.3201,4540
8.32487,4980
8.32963,4940
8.3344,4525
8.33915,5825
8.34392,5696
8.34868,5992
8.35343,6037
8.3582,6203
8.36297,6863
8.36773,6722
8.37248,8287
8.37725,7692
8.38202,8383
8.38677,9596
8.39153,8795
8.3963,8021
8.40107,7603
8.40582,6839
8.41058,6781
8.41535,6394
8.4201,5367
8.42487,6038
8.42963,5408
8.4344,5987
8.43915,5765
8.44392,5138
8.44868,5159
8.45343,5514
8.4582,4891
8.46297,5480
8.46773,6062
8.47248,5481
8.47725,5027
8.48202,5920
8.48678,6161
8.49153,5600
8.4963,5241
8.50107,5240
8.50582,6159
8.51058,5812
8.51535,5771
8.52012,5386
8.52487,5053
8.52963,5030
8.5344,4806
8.53915,5349
8.54392,4933
8.54868,5731
8.55345,4964
8.5582,5856
8.56297,5331
8.56773,5692
8.57248,4644
8.57725,4155
8.58202,5993
8.58678,5072
8.59153,4951
8.5963,5334
8.60107,5291
8.60582,5218
8.61058,5745
8.61535,5387
8.62012,5259
8.62487,5775
8.62963,6191
8.6344,6030
8.63915,5427
8.64392,5627
8.64868,4716
8.65345,5043
8.6582,6191
8.66297,5203
8.66773,4933
8.6725,5698
8.67725,6288
8.68202,5329
8.68678,5651
8.69153,5054
8.6963,6327
8.70107,6872
8.70583,7909
8.71058,7366
8.71535,8019
8.72012,7610
8.72487,8353
8.72963,7635
8.7344,6445
8.73917,5991
8.74392,5357
8.74868,5170
8.75345,5089
8.7582,5648
8.76297,5487
8.76773,5235
8.7725,5467
8.77725,5465
8.78202,4726
8.78678,5279
8.79153,6004
8.7963,5586
8.80107,5498
8.80583,5726
8.81058,5367
8.81535,5385
8.82012,5670
8.82488,5586
8.82963,5857
8.8344,4952
8.83917,5761
8.84392,4683
8.84868,5414
8.85345,4478
8.85822,5547
8.86297,5204
8.86773,5426
8.8725,5069
8.87725,4990
8.88202,5256
8.88678,5173
8.89155,5536
8.8963,4472
8.90107,5303
8.90583,5377
8.91058,5898
8.91535,5531
8.92012,5652
8.92488,5802
8.92963,5072
8.9344,4973
8.93917,4794
8.94392,5087
8.94868,5169
8.95345,5252
8.95822,5252
8.96297,5115
8.96773,4703
8.9725,5003
8.97725,4794
8.98202,5145
8.98678,5048
8.99155,5242
8.9963,6145
9.00107,4849
9.00583,5271
9.0106,4879
9.01535,5324
9.02012,5741
9.02488,5571
9.02963,5166
9.0344,4678
9.03917,4729
9.04393,5103
9.04868,4873
9.05345,5581
9.05822,5840
9.06297,5250
9.06773,6055
9.0725,4584
9.07727,5112
9.08202,5398
9.08678,5309
9.09155,5212
9.0963,5582
9.10107,6086
9.10583,5767
9.1106,5289
9.11535,5080
9.12012,4966
9.12488,5515
9.12963,5798
9.1344,5573
9.13917,4638
9.14393,4476
9.14868,5376
9.15345,5450
9.15822,5928
9.16298,5559
9.16773,5814
9.1725,5292
9.17727,5320
9.18202,5807
9.18678,6225
9.19155,5477
9.19632,5707
9.20107,5379
9.20583,5494
9.2106,5424
9.21535,5338
9.22012,6350
9.22488,6103
9.22965,5602
9.2344,7635
9.23917,6390
9.24393,5841
9.24868,6243
9.25345,7336
9.25822,7479
9.26298,6343
9.26773,6728
9.2725,6791
9.27727,6088
9.28202,5715
9.28678,6242
9.29155,5717
9.29632,6068
9.30107,4875
9.30583,5405
9.3106,5302
9.31535,5201
9.32012,5043
9.32488,4722
9.32965,5257
9.3344,4698
9.33917,5037
9.34393,4848
9.3487,5031
9.35345,4926
9.35822,5794
9.36298,5507
9.36773,5943
9.3725,4988
9.37727,4765
9.38203,5468
9.38678,5994
9.39155,5113
9.39632,5280
9.40107,5495
9.40583,5536
9.4106,4548
9.41537,5777
9.42012,5597
9.42488,4988
9.42965,5385
9.4344,5758
9.43917,6441
9.44393,5317
9.4487,5127
9.45345,4557
9.45822,5732
9.46298,5332
9.46773,5230
9.4725,4498
9.47727,5188
9.48203,5267
9.48678,5459
9.49155,5061
9.49632,5661
9.50108,4900
9.50583,5057
9.5106,5358
9.51537,4963
9.52012,5304
9.52488,5026
9.52965,5192
9.53442,5140
9.53917,5389
9.54393,5563
9.5487,5370
9.55345,5221
9.55822,5029
9.56298,5689
9.56775,5407
9.5725,5552
9.57727,5325
9.58203,5317
9.58678,5609
9.59155,5450
9.59632,6102
9.60108,5514
9.60583,6317
9.6106,6159
9.61537,6699
9.62012,6905
9.62488,7416
9.62965,6494
9.63442,5454
9.63917,6261
9.64393,6287
9.6487,5009
9.65345,6514
9.65822,5511
9.66298,5217
9.66775,5728
9.6725,5671
9.67727,5423
9.68203,5027
9.6868,5782
9.69155,5644
9.69632,4802
9.70108,5018
9.70583,5138
9.7106,5975
9.71537,5176
9.72013,5055
9.72488,5108
9.72965,4618
9.73442,5318
9.73917,5385
9.74393,5038
9.7487,5937
9.75347,5505
9.75822,5148
9.76298,5473
9.76775,4993
9.7725,5686
9.77727,5144
9.78203,5401
9.7868,4997
9.79155,5187
9.79632,5072
9.80108,5423
9.80583,4772
9.8106,4885
9.81537,5421
9.82013,4743
9.82488,5138
9.82965,5286
9.83442,5002
9.83917,5611
9.84393,5206
9.8487,4783
9.85347,5230
9.85822,5502
9.86298,5474
9.86775,5169
9.87252,4596
9.87727,4994
9.88203,4719
9.8868,4942
9.89155,5260
9.89632,5469
9.90108,5748
9.90585,5129
9.9106,5434
9.91537,5782
9.92013,5470
9.92488,4686
9.92965,5648
9.93442,4669
9.93918,4594
9.94393,5238
9.9487,5766
9.95347,5283
9.95822,4801
9.96298,5466
9.96775,5335
9.97252,5419
9.97727,4500
9.98203,4965
9.9868,4269
9.99155,4597
9.99632,4532
10.0011,4890
10.0059,5425
10.0106,5664
10.0154,5803
10.0201,5125
10.0249,5379
10.0297,6182
10.0344,4608
10.0392,4644
10.0439,5289
10.0487,5194
10.0535,5174
10.0582,5762
10.063,4994
10.0678,4838
10.0725,5333
10.0773,4916
10.082,4847
10.0868,5430
10.0916,5655
10.0963,5101
10.1011,5475
10.1059,4981
10.1106,6100
10.1154,5613
10.1201,5594
10.1249,5958
10.1297,5357
10.1344,5156
10.1392,5749
10.1439,5080
10.1487,4994
10.1535,4580
10.1582,5038
10.163,5016
10.1678,4358
10.1725,5676
10.1773,5623
10.182,4945
10.1868,5355
10.1916,5583
10.1963,4221
10.2011,5355
10.2059,5642
10.2106,6137
10.2154,5559
10.2201,4663
10.2249,5925
10.2297,5872
10.2344,5366
10.2392,4957
10.244,5545
10.2487,5213
10.2535,5545
10.2582,5373
10.263,5012
10.2678,5079
10.2725,5265
10.2773,4898
10.282,4709
10.2868,5203
10.2916,5153
10.2963,5152
10.3011,4957
10.3059,5212
10.3106,4725
10.3154,4051
10.3201,4723
10.3249,4609
10.3297,5214
10.3344,5857
10.3392,5016
10.344,4992
10.3487,4997
10.3535,4873
10.3582,5419
10.363,5436
10.3678,5615
10.3725,4648
10.3773,5764
10.382,5635
10.3868,5392
10.3916,5329
10.3963,5477
10.4011,6352
10.4059,5259
10.4106,5071
10.4154,5572
10.4201,5419
10.4249,5692
10.4297,5401
10.4344,5929
10.4392,4889
10.444,5305
10.4487,5485
10.4535,5696
10.4582,5923
10.463,6417
10.4678,5045
10.4725,4844
10.4773,6417
10.482,5548
10.4868,5089
10.4916,5090
10.4963,5462
10.5011,5631
10.5059,6344
10.5106,6027
10.5154,5442
10.5201,6195
10.5249,5116
10.5297,4619
10.5344,4918
10.5392,5674
10.544,4778
10.5487,4913
10.5535,4780
10.5582,5154
10.563,5235
10.5678,4687
10.5725,5336
10.5773,4871
10.5821,5109
10.5868,5296
10.5916,5137
10.5963,5283
10.6011,5022
10.6059,4406
10.6106,5883
10.6154,4402
10.6201,5335
10.6249,5356
10.6297,5622
10.6344,5394
10.6392,4888
10.644,5061
10.6487,4937
10.6535,5679
10.6582,5252
10.663,4320
10.6678,4873
10.6725,4554
10.6773,4863
10.6821,5555
10.6868,5197
10.6916,5467
10.6963,5264
10.7011,4937
10.7059,5358
10.7106,5392
10.7154,5464
10.7201,5364
10.7249,4396
10.7297,5216
10.7344,4995
10.7392,5064
10.744,5055
10.7487,4921
10.7535,5033
10.7582,5939
10.763,5647
10.7678,5400
10.7725,5915
10.7773,6270
10.7821,5805
10.7868,6129
10.7916,5998
10.7963,5423
10.8011,6476
10.8059,6267
10.8106,6331
10.8154,6149
10.8201,5775
10.8249,6283
10.8297,5511
10.8344,5633
10.8392,5558
10.844,5037
10.8487,5022
10.8535,5014
10.8582,4742
10.863,4769
10.8678,5114
10.8725,5140
10.8773,5503
10.8821,5056
10.8868,5227
10.8916,5747
10.8963,6390
10.9011,5502
10.9059,5351
10.9106,4869
10.9154,5211
10.9202,5069
10.9249,5795
10.9297,4449
10.9344,5032
10.9392,4873
10.944,5315
10.9487,5938
10.9535,5052
10.9582,4855
10.963,5080
10.9678,5820
10.9725,5194
10.9773,5100
10.9821,5654
10.9868,5201
10.9916,5561
10.9963,5254
11.0011,4242
11.0059,4977
11.0106,5202
11.0154,5451
11.0202,4470
11.0249,4670
11.0297,6184
11.0344,5032
11.0392,5627
11.044,4852
11.0487,4919
11.0535,5287
11.0582,5264
11.063,5079
11.0678,5156
11.0725,5043
11.0773,5069
11.0821,4489
11.0868,5208
11.0916,4454
11.0963,5446
11.1011,4969
11.1059,5054
11.1106,5850
11.1154,4934
11.1202,5441
11.1249,4835
11.1297,5047
11.1344,5066
11.1392,5132
11.144,4815
11.1487,4868
11.1535,5881
11.1582,4687
11.163,5597
11.1678,4651
11.1725,4929
11.1773,4567
11.1821,5352
11.1868,5623
11.1916,4569
11.1963,4594
11.2011,5462
11.2059,5217
11.2106,4765
11.2154,5587
11.2202,5465
11.2249,5745
11.2297,5479
11.2344,4476
11.2392,5197
11.244,4680
11.2487,5265
11.2535,4917
11.2583,5058
11.263,4897
11.2678,4848
11.2725,5094
11.2773,4775
11.2821,6209
11.2868,4820
11.2916,5250
11.2963,5383
11.3011,4845
11.3059,4931
11.3106,5021
11.3154,5868
11.3202,5942
11.3249,5308
11.3297,5081
11.3344,4995
11.3392,5082
11.344,4796
11.3487,5378
11.3535,4582
11.3583,5485
11.363,5711
11.3678,4784
11.3725,5621
11.3773,4154
11.3821,4339
11.3868,5347
11.3916,5360
11.3963,4741
11.4011,4217
11.4059,4746
11.4106,5474
11.4154,4828
11.4202,4704
11.4249,4605
11.4297,5436
11.4344,5591
11.4392,5232
11.444,4895
11.4487,5300
11.4535,5692
11.4583,4682
11.463,4627
11.4678,5853
11.4725,4776
11.4773,4340
11.4821,5158
11.4868,5088
11.4916,4781
11.4963,4916
11.5011,4230
11.5059,5152
11.5106,5795
11.5154,5077
11.5202,5397
11.5249,4938
11.5297,4466
11.5344,4795
11.5392,4758
11.544,5763
11.5487,4963
11.5535,4620
11.5583,5241
11.563,5524
11.5678,5546
11.5725,4530
11.5773,5002
11.5821,4929
11.5868,5300
11.5916,5378
11.5964,5338
11.6011,4785
11.6059,4142
11.6106,5387
11.6154,5382
11.6202,5141
11.6249,4860
11.6297,5104
11.6344,5054
11.6392,5036
11.644,5237
11.6487,4739
11.6535,5097
11.6583,4670
11.663,5105
11.6678,5538
11.6725,4776
11.6773,5408
11.6821,4925
11.6868,5019
11.6916,4941
11.6964,5376
11.7011,5088
11.7059,5569
11.7106,4751
11.7154,4366
11.7202,4795
11.7249,5149
11.7297,4970
11.7344,5204
11.7392,5227
11.744,5127
11.7487,4975
11.7535,5413
11.7583,5398
11.763,4432
11.7678,5068
11.7725,5358
11.7773,5308
11.7821,4483
11.7868,5671
11.7916,4861
11.7964,4931
11.8011,4686
11.8059,5213
11.8106,5422
11.8154,5475
11.8202,4958
11.8249,5306
11.8297,5290
11.8344,4618
11.8392,5060
11.844,5400
11.8487,4870
11.8535,5130
11.8583,5145
11.863,5310
11.8678,5229
11.8725,4905
11.8773,5209
11.8821,4977
11.8868,5400
11.8916,5268
11.8964,4706
11.9011,4686
11.9059,5321
11.9106,5128
11.9154,5174
11.9202,4782
11.9249,5344
11.9297,4735
11.9345,4789
11.9392,5272
11.944,4622
11.9487,5322
11.9535,4852
11.9583,5492
11.963,4898
11.9678,4513
11.9725,5127
11.9773,4710
11.9821,5416
11.9868,5574
11.9916,5515
11.9964,4735
12.0011,5551
12.0059,5985
12.0106,5399
12.0154,4807
12.0202,5253
12.0249,5644
12.0297,5219
12.0345,5293
12.0392,5569
12.044,5736
12.0487,5133
12.0535,5015
12.0583,5718
12.063,5059
12.0678,5602
12.0725,5318
12.0773,4681
12.0821,5261
12.0868,5411
12.0916,4879
12.0964,5827
12.1011,4770
12.1059,5170
12.1106,5010
12.1154,5626
12.1202,4779
12.1249,4718
12.1297,4568
12.1345,4928
12.1392,4986
12.144,4942
12.1487,5733
12.1535,4802
12.1583,4644
12.163,4862
12.1678,5592
12.1725,5786
12.1773,4998
12.1821,4543
12.1868,5299
12.1916,4822
12.1964,4884
12.2011,4924
12.2059,4795
12.2106,5508
12.2154,5073
12.2202,5149
12.2249,5117
12.2297,5331
12.2345,5054
12.2392,5241
12.244,5411
12.2487,4603
12.2535,4875
12.2583,4669
12.263,4961
12.2678,4891
12.2726,5492
12.2773,4890
12.2821,4794
12.2868,5120
12.2916,5035
12.2964,4696
12.3011,5224
12.3059,5399
12.3106,4994
12.3154,4796
12.3202,5466
12.3249,5784
12.3297,5588
12.3345,5305
12.3392,5438
12.344,5540
12.3487,5202
12.3535,5371
12.3583,5639
12.363,5493
12.3678,6144
12.3726,5681
12.3773,5495
12.3821,5958
12.3868,4650
12.3916,5412
12.3964,5947
12.4011,5175
12.4059,5578
12.4106,5849
12.4154,4919
12.4202,4759
12.4249,4915
12.4297,4687
12.4345,5792
12.4392,5412
12.444,5044
12.4487,5993
12.4535,5550
12.4583,4625
12.463,5003
12.4678,4681
12.4726,4668
12.4773,4404
12.4821,4905
12.4868,4746
12.4916,4914
12.4964,4879
12.5011,4344
12.5059,5199
12.5106,4861
12.5154,4877
12.5202,5052
12.5249,4725
12.5297,5108
12.5345,4714
12.5392,4778
12.544,4554
12.5487,5657
12.5535,4539
12.5583,4421
12.563,5127
12.5678,4662
12.5726,5086
12.5773,5424
12.5821,4409
12.5868,5814
12.5916,4927
12.5964,4525
12.6011,4921
12.6059,4059
12.6107,5020
12.6154,4150
12.6202,4939
12.6249,5210
12.6297,4951
12.6345,5040
12.6392,4900
12.644,5204
12.6487,4710
12.6535,5190
12.6583,5518
12.663,4814
12.6678,5133
12.6726,4600
12.6773,5497
12.6821,4535
12.6868,4948
12.6916,4916
12.6964,5208
12.7011,4959
12.7059,6085
12.7107,4981
12.7154,5215
12.7202,5474
12.7249,4622
12.7297,4941
12.7345,5380
12.7392,5867
12.744,4676
12.7487,4390
12.7535,4487
12.7583,5367
12.763,5769
12.7678,4838
12.7726,5296
12.7773,4915
12.7821,4865
12.7868,4650
12.7916,3796
12.7964,4285
12.8011,4887
12.8059,4938
12.8107,4717
12.8154,5033
12.8202,5304
12.8249,5347
12.8297,5296
12.8345,4764
12.8392,4926
12.844,4625
12.8487,4361
12.8535,5253
12.8583,4516
12.863,5075
12.8678,5128
12.8726,5378
12.8773,4767
12.8821,5207
12.8868,4459
12.8916,4818
12.8964,5133
12.9011,5240
12.9059,5377
12.9107,4981
12.9154,4973
12.9202,4973
12.9249,4919
12.9297,4946
12.9345,5050
12.9392,5032
12.944,5242
12.9488,4820
12.9535,5333
12.9583,5462
12.963,4548
12.9678,5031
12.9726,4063
12.9773,4300
12.9821,5175
12.9868,5427
12.9916,4039
12.9964,4858
13.0011,5218
13.0059,5292
13.0107,4942
13.0154,5051
13.0202,5487
13.0249,4410
13.0297,5627
13.0345,4874
13.0392,4043
13.044,5085
13.0488,5497
13.0535,4640
13.0583,4979
13.063,5442
13.0678,5069
13.0726,4939
13.0773,5545
13.0821,5436
13.0868,4651
13.0916,5666
13.0964,5920
13.1011,4781
13.1059,4635
13.1107,5733
13.1154,4764
13.1202,5918
13.1249,5394
13.1297,5238
13.1345,5498
13.1392,4738
13.144,5539
13.1488,4851
13.1535,5403
13.1583,5480
13.163,5432
13.1678,4285
13.1726,4399
13.1773,5287
13.1821,4937
13.1868,5368
13.1916,5144
13.1964,4828
13.2011,4957
13.2059,5326
13.2107,4456
13.2154,5194
13.2202,4902
13.2249,5356
13.2297,4826
13.2345,4537
13.2392,4973
13.244,4657
13.2488,5090
13.2535,5243
13.2583,4531
13.263,4844
13.2678,4311
13.2726,5206
13.2773,5328
13.2821,5309
13.2869,5175
13.2916,5219
13.2964,5281
13.3011,5157
13.3059,4803
13.3107,5212
13.3154,4516
13.3202,4976
13.3249,4855
13.3297,5368
13.3345,4928
13.3392,5276
13.344,5046
13.3488,5098
13.3535,4401
13.3583,4924
13.363,4776
13.3678,4660
13.3726,5393
13.3773,4348
13.3821,5181
13.3869,4626
13.3916,4870
13.3964,4809
13.4011,4733
13.4059,5069
13.4107,4124
13.4154,5422
13.4202,4616
13.4249,4845
13.4297,4672
13.4345,4808
13.4392,5770
13.444,4773
13.4488,4993
13.4535,4594
13.4583,4974
13.463,4819
13.4678,5544
13.4726,5072
13.4773,5145
13.4821,5317
13.4869,5598
13.4916,4797
13.4964,4661
13.5011,5118
13.5059,4666
13.5107,5840
13.5154,4405
13.5202,5348
13.5249,4395
13.5297,5060
13.5345,4860
13.5392,4477
13.544,4925
13.5488,4829
13.5535,4951
13.5583,5385
13.563,5050
13.5678,4566
13.5726,5056
13.5773,5563
13.5821,5077
13.5869,5697
13.5916,4777
13.5964,4500
13.6011,5095
13.6059,4683
13.6107,5252
13.6154,5155
13.6202,4776
13.625,4973
13.6297,4911
13.6345,4843
13.6392,4546
13.644,5123
13.6488,5282
13.6535,4547
13.6583,5074
13.663,5618
13.6678,4635
13.6726,5305
13.6773,4789
13.6821,6321
13.6869,5067
13.6916,5247
13.6964,5294
13.7011,4872
13.7059,4608
13.7107,5807
13.7154,4775
13.7202,4874
13.725,4878
13.7297,5131
13.7345,4507
13.7392,5374
13.744,4262
13.7488,4794
13.7535,5049
13.7583,4883
13.763,4758
13.7678,4880
13.7726,5552
13.7773,5282
13.7821,4898
13.7869,4125
13.7916,4677
13.7964,5214
13.8011,4954
13.8059,5485
13.8107,5792
13.8154,4895
13.8202,5366
13.825,5274
13.8297,5316
13.8345,5053
13.8392,5358
13.844,5767
13.8488,4865
13.8535,5337
13.8583,4675
13.863,4980
13.8678,6213
13.8726,5352
13.8773,4980
13.8821,4707
13.8869,4862
13.8916,5958
13.8964,5151
13.9011,4768
13.9059,4844
13.9107,4937
13.9154,5428
13.9202,5723
13.925,5272
13.9297,5188
13.9345,4613
13.9392,4655
13.944,4838
13.9488,4567
13.9535,4640
13.9583,5449
13.9631,4654
13.9678,4735
13.9726,4930
13.9773,5240
13.9821,5715
13.9869,5430
13.9916,5164
13.9964,4103
14.0011,4908
14.0059,4874
14.0107,4779
14.0154,4716
14.0202,4729
14.025,4603
14.0297,3910
14.0345,5134
14.0392,4807
14.044,5254
14.0488,4753
14.0535,5146
14.0583,5442
14.0631,5062
14.0678,4619
14.0726,5528
14.0773,4290
14.0821,4662
14.0869,4909
14.0916,5533
14.0964,5221
14.1011,5263
14.1059,5267
14.1107,4736
14.1154,5135
14.1202,5380
14.125,4191
14.1297,4674
14.1345,4465
14.1392,5745
14.144,4812
14.1488,5006
14.1535,3989
14.1583,5062
14.1631,5261
14.1678,5376
14.1726,5099
14.1773,4451
14.1821,5110
14.1869,5258
14.1916,5458
14.1964,5044
14.2011,4945
14.2059,5131
14.2107,5829
14.2154,4942
14.2202,4495
14.225,5091
14.2297,4376
14.2345,5259
14.2392,4813
14.244,5044
14.2488,4697
14.2535,5018
14.2583,5177
14.2631,5191
14.2678,4901
14.2726,5337
14.2773,4812
14.2821,5112
14.2869,4288
14.2916,5593
14.2964,5212
14.3012,5398
14.3059,4476
14.3107,4862
14.3154,5254
14.3202,5315
14.325,5304
14.3297,4939
14.3345,5237
14.3392,4905
14.344,4745
14.3488,4461
14.3535,4990
14.3583,4615
14.3631,4755
14.3678,5183
14.3726,4901
14.3773,4742
14.3821,5157
14.3869,4636
14.3916,5445
14.3964,5336
14.4012,5644
14.4059,4712
14.4107,5237
14.4154,4998
14.4202,4777
14.425,5332
14.4297,4968
14.4345,4537
14.4392,5361
14.444,5959
14.4488,5758
14.4535,5128
14.4583,6279
14.4631,5433
14.4678,5749
14.4726,5822
14.4773,5185
14.4821,5683
14.4869,5387
14.4916,4912
14.4964,5684
14.5012,5062
14.5059,4582
14.5107,5540
14.5154,4986
14.5202,4549
14.525,4966
14.5297,4516
14.5345,4891
14.5392,5715
14.544,5185
14.5488,5096
14.5535,4789
14.5583,5005
14.5631,4332
14.5678,5283
14.5726,5369
14.5773,5267
14.5821,5088
14.5869,5346
14.5916,4478
14.5964,4418
14.6012,4475
14.6059,4602
14.6107,4906
14.6154,4872
14.6202,4784
14.625,4681
14.6297,5598
14.6345,5050
14.6393,4577
14.644,5103
14.6488,4731
14.6535,5989
14.6583,5939
